254.98
254.91
255.06
255.02
255.05
255.12
255.06
255.2
255.17
255.2
255.36
255.31
255.44
255.51
255.54
255.79
255.85
255.98
256.05
256.27
256.36
256.28
256.35
256.47
256.55
256.48
256.45
256.66
256.94
256.88
257.02
257.18
257.14
257.17
257.23
257.36
257.53
257.57
257.91
258.08
258.12
258.09
258.2
258.39
258.41
258.39
258.41
258.58
258.62
258.68
258.72
259.25
259.36
259.45
259.66
260.23
260.59
260.55
260.88
260.98
261.08
261.27
261.59
261.89
262.11
262.3
262.72
262.93
263.13
263.35
263.46
263.55
263.66
263.66
263.96
263.9
263.75
263.59
263.53
263.68
263.55
263.57
263.46
263.55
263.57
263.36
263.54
263.67
263.66
263.67
263.66
263.87
263.88
263.96
264.09
264.27
264.31
264.18
264.29
264.29
264.29
264.19
264.08
264.08
264.18
264.1
264.17
264.3
264.28
264.2
264.27
264.31
264.27
264.12
264.25
264.33
264.35
264.24
264.23
264.44
264.45
264.26
264.32
264.47
264.23
264.34
264.24
264.43
264.36
264.33
264.26
264.32
264.37
264.33
264.26
264.32
264.37
264.32
264.26
264.32
264.27
264.31
264.28
264.3
264.19
264.19
264.19
264.28
264.11
264.15
264.32
264.26
264.32
264.17
264.21
264.17
264.3
264.18
264.19
264.18
264.19
264.08
263.99
264.07
264.19
264.08
264.08
264.08
264.18
264.09
264.07
264.19
264.19
264.19
264.09
263.98
263.98
264.07
264.09
264.07
264.19
263.99
264.06
264.1
264.16
264.11
263.96
264
264.06
263.71
263.62
263.61
263.32
263.38
263.33
263.28
263.22
263.08
263
262.98
262.8
262.76
262.7
262.66
262.5
262.35
262.19
262.14
261.99
262.02
261.8
261.61
261.39
261.1
260.88
260.59
260.37
260.28
260.17
260.07
259.87
259.66
259.47
259.35
259.17
258.86
258.76
258.37
258.24
258.08
257.94
257.78
257.36
257.16
257.06
256.96
256.77
256.57
256.56
256.47
256.27
256.17
256.17
255.98
255.96
255.89
255.77
255.78
255.59
255.48
255.39
255.28
255.38
255.02
254.96
254.93
254.68
254.53
254.39
254.42
254.39
254.24
254.19
254.32
254.3
254.14
254.1
254.23
254.02
254.2
254.05
254.08
254.15
253.99
254.04
254
253.95
253.54
253.45
253.26
253.24
253.17
253.23
253.18
253.22
253.19
253.12
253.18
253.13
253.09
253.12
253.09
253.02
253.09
253.03
253.08
252.94
252.97
253.04
253.07
252.95
252.97
253.04
253.07
253.05
252.97
252.95
253.06
252.96
252.96
252.96
253.04
253.07
253.04
252.98
253.03
253.17
253.05
253.07
253.05
253.06
253.05
252.97
253.12
253.18
253.04
253.07
253.04
253.07
253.13
252.99
253.02
253.09
253.03
252.99
253.11
253.1
253.1
253.2
253.02
253.09
253.12
253.18
253.12
253.18
253.13
253.17
253.14
253.17
253.05
253.06
253.14
253.07
253.22
253.09
253.12
253.27
253.23
253.18
253.22
253.27
253.23
253.18
253.13
253.26
253.33
253.27
253.14
253.07
253.14
253.08
253.04
252.98
253.12
253.09
253.03
253.17
253.05
252.97
253.04
253.07
253.04
252.97
252.95
253.06
252.97
252.95
252.97
252.95
253.06
252.87
253.04
252.98
252.94
252.89
252.93
252.98
253.03
252.9
252.92
253
253.02
252.91
252.91
253
252.92
252.91
252.92
252.91
252.91
252.91
252.82
252.9
252.83
252.89
252.84
252.8
252.92
252.9
252.83
252.98
252.94
252.89
252.93
252.98
253.03
252.99
253.02
253.08
253.12
253.09
253.03
253.08
253.12
253
253.11
253.1
253.1
253.02
253
253.2
253.02
252.99
252.93
252.99
252.94
252.8
252.92
252.91
252.83
252.81
252.73
252.8
252.83
252.8
252.83
252.71
252.81
252.73
252.62
252.81
252.73
252.71
252.64
252.79
252.84
252.7
252.65
252.78
252.67
252.59
252.66
252.68
252.75
252.69
252.66
252.59
252.74
252.7
252.65
252.69
252.74
252.7
252.65
252.78
252.76
252.69
252.66
252.77
252.59
252.56
252.68
252.66
252.77
252.58
252.66
252.68
252.75
252.6
252.64
252.7
252.65
252.6
252.55
252.51
252.63
252.62
252.54
252.7
252.65
252.51
252.54
252.61
252.55
252.6
252.55
252.6
252.65
252.52
252.63
252.62
252.53
252.52
252.53
252.62
252.54
252.52
252.53
252.52
252.53
252.53
252.53
252.62
252.54
252.52
252.45
252.51
252.54
252.52
252.54
252.61
252.64
252.61
252.63
252.62
252.54
252.52
252.54
252.61
252.55
252.51
252.54
252.61
252.55
252.51
252.55
252.6
252.55
252.42
252.54
252.61
252.55
252.42
252.44
252.6
252.55
252.42
252.36
252.5
252.47
252.4
252.37
252.48
252.39
252.38
252.4
252.28
252.3
252.28
252.39
252.29
252.38
252.3
252.28
252.3
252.37
252.31
252.28
252.39
252.2
252.27
252.31
252.27
252.4
252.2
252.37
252.31
252.18
252.2
252.27
252.3
252.19
252.2
252.28
252.21
252.18
252.12
252.17
252.22
252.17
252.12
252.17
252.22
252.17
252.13
252.16
252.13
252.15
252.23
252.16
252.05
252.14
252.15
252.14
252.25
252.15
252.15
252.14
252.24
252.15
252.14
252.06
252.22
252.17
252.13
252.07
252.21
252.09
252.01
252
252.01
252.09
251.93
251.98
251.94
251.97
252.03
251.98
252.02
251.99
251.93
251.98
252.02
251.99
251.93
251.98
252.02
251.99
251.93
251.98
251.94
251.97
251.94
251.88
252.02
251.99
251.93
251.89
251.92
251.9
251.83
251.89
251.92
251.9
251.83
251.8
251.82
251.72
251.72
251.9
251.74
251.88
251.85
251.78
251.84
251.79
251.83
251.88
251.84
251.7
251.73
251.8
251.83
251.8
251.73
251.7
251.82
251.81
251.73
251.71
251.72
251.72
251.63
251.71
251.64
251.7
251.65
251.69
251.65
251.59
251.65
251.6
251.55
251.51
251.46
251.5
251.47
251.49
251.38
251.39
251.56
251.41
251.46
251.41
251.45
251.51
251.37
251.4
251.46
251.41
251.37
251.4
251.37
251.31
251.28
251.3
251.37
251.31
251.28
251.3
251.28
251.12
251.26
251.23
251.34
251.34
251.16
251.23
251.26
251.23
251.16
251.22
251.17
251.22
251.18
251.12
251.26
251.14
251.07
251.05
251.24
251.16
251.05
251.06
251.13
251.08
251.03
251.08
251.12
251.18
251.03
251.16
251.14
251.07
251.04
251.16
251.14
251.07
251.04
251.07
251.13
251.26
251.06
251.05
251.06
251.23
251.08
251.12
251.09
251.11
251.1
251.1
251.19
251.02
251.09
251.11
251.27
251.04
251.24
251.34
251.34
251.34
251.25
251.41
251.36
251.32
251.36
251.32
251.35
251.41
251.36
251.4
251.37
251.4
251.38
251.39
251.38
251.38
251.48
251.39
251.47
251.31
251.45
251.42
251.53
251.44
251.43
251.53
251.44
251.52
251.45
251.42
251.53
251.52
251.53
251.62
251.63
251.62
251.54
251.61
251.55
251.42
251.62
251.63
251.53
251.62
251.63
251.62
251.62
251.62
251.62
251.45
251.59
251.56
251.49
251.65
251.51
251.63
251.52
251.62
251.63
251.44
251.6
251.65
251.6
251.64
251.52
251.63
251.62
251.63
251.53
251.61
251.63
251.61
251.63
251.7
251.64
251.69
251.65
251.6
251.74
251.61
251.63
251.7
251.64
251.69
251.74
251.78
251.84
251.79
251.84
251.79
251.83
251.71
251.82
251.9
251.92
251.81
251.81
251.9
251.91
251.9
251.82
251.89
251.92
251.98
251.93
251.89
252.02
251.9
251.91
251.99
252.01
252
251.92
251.99
251.93
251.98
251.94
251.97
252.03
252.06
251.95
252.04
252.06
252.04
252.06
252.04
252.24
252.06
252.13
251.89
252.19
252.2
252.1
252.19
252.19
252.2
252.19
252.29
252.2
252.28
252.3
252.28
252.38
252.39
252.29
252.29
252.38
252.39
252.29
252.38
252.39
252.47
252.4
252.29
252.47
252.49
252.38
252.48
252.39
252.47
252.49
252.47
252.49
252.47
252.49
252.48
252.39
252.47
252.49
252.47
252.58
252.57
252.58
252.58
252.58
252.49
252.47
252.49
252.47
252.4
252.37
252.4
252.37
252.31
252.27
252.39
252.29
252.47
252.4
252.46
252.41
252.36
252.5
252.47
252.49
252.56
252.51
252.55
252.6
252.55
252.6
252.64
252.79
252.75
252.78
252.75
252.87
252.95
252.88
252.76
252.87
252.95
252.88
252.85
252.87
252.94
252.97
252.95
253.06
252.96
253.14
253.17
253.14
253.26
253.24
253.17
253.14
253.16
253.23
253.18
253.22
253.45
253.34
253.44
253.44
253.35
253.43
253.36
253.42
253.37
253.41
253.47
253.41
253.38
253.41
253.47
253.41
253.56
253.52
253.46
253.51
253.38
253.49
253.49
253.4
253.57
253.6
253.49
253.49
253.49
253.57
253.51
253.47
253.51
253.56
253.52
253.46
253.7
253.58
253.59
253.49
253.67
253.6
253.57
253.6
253.66
253.52
253.55
253.53
253.63
253.64
253.63
253.64
253.62
253.74
253.63
253.64
253.81
253.76
253.7
253.76
253.7
253.76
253.61
253.74
253.71
253.84
253.64
253.72
253.83
253.83
253.64
253.8
253.85
253.9
253.76
253.79
253.95
253.9
253.94
253.81
253.84
254
253.95
253.9
253.94
254.09
254.14
254.18
254.24
254.37
254.35
254.45
254.37
254.44
254.48
254.35
254.64
254.56
254.46
254.46
254.46
254.45
254.46
254.45
254.46
254.45
254.56
254.46
254.64
254.57
254.54
254.57
254.63
254.58
254.53
254.57
254.63
254.58
254.62
254.59
254.61
254.77
254.63
254.57
254.72
254.69
254.62
254.68
254.81
254.79
254.71
254.78
254.81
254.88
254.73
254.77
254.73
254.85
254.84
254.76
254.92
254.87
254.82
254.77
254.91
254.97
254.82
254.86
255.01
254.98
254.91
254.88
255
255.08
254.92
254.97
255.01
255.16
255.03
254.95
255.02
255.05
254.94
254.95
255.03
255.05
255.04
255.04
255.13
254.96
255.11
255.07
255.19
255.18
255.01
255.07
255.1
255.17
255.11
255.16
255.12
255.15
255.12
255.15
255.13
255.14
255.13
255.14
255.23
255.15
255.13
255.15
255.22
255.16
255.12
255.24
255.32
255.16
255.21
255.26
255.21
255.25
255.22
255.16
255.21
255.26
255.22
255.25
255.31
255.26
255.21
255.35
255.41
255.35
255.31
255.26
255.31
255.36
255.4
255.36
255.49
255.57
255.31
255.35
255.5
255.37
255.39
255.47
255.4
255.55
255.42
255.35
255.41
255.45
255.42
255.44
255.51
255.45
255.41
255.45
255.42
255.44
255.42
255.44
255.52
255.45
255.42
255.44
255.51
255.54
255.43
255.34
255.51
255.55
255.42
255.44
255.61
255.55
255.51
255.46
255.59
255.66
255.51
255.55
255.7
255.75
255.52
255.54
255.52
255.62
255.63
255.53
255.62
255.73
255.63
255.62
255.82
255.74
255.63
255.54
255.61
255.64
255.71
255.65
255.79
255.76
255.69
255.75
255.79
255.76
255.69
255.75
255.79
255.85
255.71
255.74
255.8
255.84
255.72
255.73
255.9
255.85
255.8
255.93
256
255.94
255.9
255.94
256
255.76
255.87
255.96
256.07
256.07
255.97
255.97
256.06
256.17
255.98
255.96
256.16
256.09
255.96
256.07
256.06
256.17
256.08
256.06
256.16
256.17
256.07
256.07
256.16
256.17
256.07
256.16
256.17
256.16
256.17
256.26
256.27
256.26
256.18
256.25
256.28
256.25
256.28
256.25
256.37
256.18
256.25
256.46
256.37
256.54
256.3
256.41
256.51
256.42
256.41
256.32
256.49
256.43
256.4
256.42
256.59
256.44
256.39
256.53
256.5
256.52
256.51
256.42
256.5
256.52
256.51
256.42
256.68
256.64
256.58
256.63
256.59
256.63
256.6
256.62
256.7
256.63
256.6
256.62
256.6
256.62
256.6
256.62
256.7
256.63
256.69
256.63
256.77
256.56
256.56
256.75
256.76
256.76
256.67
256.75
256.77
256.75
256.67
256.74
256.77
256.84
256.69
256.73
256.79
256.74
256.78
256.74
256.77
256.84
256.78
256.83
256.88
256.84
256.87
256.85
256.87
256.94
256.78
256.83
256.88
256.84
256.97
256.95
256.96
256.95
256.96
257.05
257.06
257.05
256.96
257.14
257.17
257.14
257.07
257.04
257.16
257.24
257.08
257.04
257.17
257.15
257.16
257.24
257.17
257.23
257.18
257.22
257.19
257.22
257.2
257.21
257.29
257.22
257.19
257.21
257.29
257.22
257.19
257.22
257.29
257.32
257.3
257.31
257.39
257.41
257.4
257.41
257.4
257.31
257.48
257.43
257.48
257.34
257.46
257.55
257.47
257.54
257.47
257.44
257.56
257.64
257.48
257.53
257.58
257.53
257.57
257.54
257.66
257.56
257.55
257.56
257.54
257.65
257.56
257.64
257.66
257.65
257.66
257.56
257.55
257.74
257.57
257.63
257.58
257.62
257.68
257.53
257.75
257.66
257.65
257.75
257.66
257.74
257.67
257.73
257.68
257.72
257.78
257.73
257.77
257.73
257.77
257.74
257.77
257.74
257.76
257.84
257.87
257.84
257.86
257.94
257.96
258.03
257.88
257.82
257.97
257.84
257.95
258.05
258.06
257.95
257.95
257.96
258.04
258.06
257.95
258.05
258.05
258.05
258.05
258.05
258.05
257.96
258.04
258.07
258.13
258.17
258.13
258.35
258.35
258.35
258.35
258.35
258.44
258.46
258.44
258.37
258.34
258.46
258.35
258.44
258.37
258.34
258.46
258.26
258.43
258.38
258.33
258.28
258.51
258.5
258.41
258.49
258.41
258.49
258.33
258.47
258.53
258.48
258.43
258.47
258.53
258.57
258.53
258.57
258.54
258.66
258.65
258.75
258.76
258.84
258.87
258.84
258.87
258.84
258.77
258.82
258.88
258.73
258.86
258.84
258.86
258.84
258.77
258.83
258.88
258.83
258.78
258.82
258.79
258.62
258.87
258.84
258.77
258.83
258.78
258.73
258.78
258.73
258.77
258.73
258.67
258.73
258.68
258.72
258.78
258.72
258.68
258.62
258.77
258.74
258.67
258.73
258.68
258.72
258.69
258.62
258.77
258.64
258.66
258.74
258.76
258.65
258.65
258.66
258.74
258.67
258.73
258.69
258.71
258.7
258.61
258.79
258.72
258.78
258.72
258.78
258.72
258.87
258.74
258.76
258.74
258.86
258.85
258.76
258.93
258.98
258.93
259.07
258.95
259.05
259.06
259.15
259.16
259.24
259.27
259.15
259.25
259.44
259.47
259.45
259.56
259.55
259.66
259.57
259.64
259.77
259.85
259.87
259.85
259.97
259.96
259.97
260.06
260.07
260.25
260
260.21
260.32
260.32
260.42
260.32
260.5
260.73
260.73
261.01
261.44
261.54
262.03
262.47
263.15
263.92
264.52
265.17
265.59
266.02
266.54
267.08
267.72
268.37
268.91
269.35
270.09
270.78
271.41
271.69
272.07
272.26
272.3
272.37
272.72
272.84
272.83
272.95
273.05
273.07
273.15
273.3
273.37
273.63
273.51
273.62
273.73
273.85
273.84
273.85
273.94
274.08
273.96
274.06
273.97
274.16
274.1
274.15
274.21
274.37
274.55
274.71
274.79
274.71
274.78
274.83
275
274.95
274.99
275.07
275.21
275.4
275.34
275.5
275.58
275.72
275.82
275.84
276.14
276.3
276.27
276.4
276.51
276.63
276.63
276.73
277.08
276.88
276.95
277
277.17
277.23
277.18
277.33
277.42
277.56
277.65
277.68
277.98
278.04
278.1
278.37
278.35
278.59
278.6
278.47
278.59
278.7
278.83
278.72
278.92
278.96
279.04
278.97
279.14
279.22
279.04
279.08
279.26
279.22
279.14
279.21
279.26
279.11
279.23
279.24
279.34
279.37
279.34
279.48
279.46
279.59
279.47
279.58
279.7
279.71
279.59
279.8
279.84
279.92
279.74
279.89
279.98
279.9
279.86
279.89
279.87
280
280
279.88
280.1
280.02
279.98
280.01
280.21
280.15
280.09
280.25
280.33
280.26
280.21
280.25
280.22
280.36
280.35
280.35
280.24
280.33
280.26
280.21
280.26
280.1
280.02
279.86
279.9
279.86
279.79
279.85
279.8
279.73
279.8
279.62
279.78
279.53
279.64
279.66
279.75
279.67
279.62
279.56
279.83
279.71
279.7
279.83
279.81
280.05
279.84
279.92
280.07
280.05
279.95
279.93
279.94
279.94
279.72
279.81
279.83
279.92
279.84
279.81
279.94
279.94
279.83
279.93
280.06
280.06
279.94
279.94
279.94
280.05
279.84
279.7
279.6
279.47
279.36
279.34
279.14
279.21
279.15
279.2
279.16
279.3
279.29
279.29
279.41
279.3
279.4
279.31
279.39
279.43
279.29
279.41
279.42
279.4
279.53
279.53
279.53
279.52
279.54
279.52
279.54
279.63
279.67
279.52
279.76
279.55
279.73
279.68
279.72
279.69
279.72
279.7
279.82
279.94
279.83
279.82
280.04
279.96
280.02
280.2
280.15
280.42
280.18
280.39
280.43
280.5
280.44
280.49
280.56
280.5
280.55
280.73
280.8
280.74
280.79
280.74
280.67
280.84
280.81
280.84
280.82
280.83
280.82
280.82
281.05
281.07
281.16
281.19
281.28
281.31
281.29
281.2
281.39
281.33
281.27
281.21
281.26
281.44
281.28
281.31
281.51
281.56
281.63
281.68
281.86
281.81
281.74
281.81
281.86
281.81
281.85
281.82
281.95
281.95
281.95
282.07
282.07
282.18
282.08
282.06
282.19
282.19
282.08
282.18
282.2
282.18
282.08
282.28
282.22
282.27
282.34
282.39
282.35
282.38
282.36
282.27
282.46
282.4
282.34
282.28
282.45
282.42
282.33
282.41
282.45
282.41
282.45
282.42
282.55
282.44
282.53
282.57
282.64
282.7
282.53
282.79
282.79
282.68
282.66
282.68
282.77
282.92
282.68
282.77
282.8
282.89
282.82
282.76
282.92
282.9
282.81
282.88
282.82
282.98
282.96
282.97
283.08
282.87
282.94
282.88
283.05
282.9
282.92
282.9
283.03
283.03
282.91
283.02
283.04
283.24
282.96
283.09
283.21
283.1
283.08
283.09
283.2
283.1
283.19
283.22
283.31
283.34
283.21
283.21
283.32
283.22
283.31
283.23
283.3
283.47
283.21
283.32
283.35
283.31
283.35
283.31
283.35
283.31
283.35
283.43
283.47
283.43
283.47
283.43
283.58
283.34
283.44
283.35
283.42
283.36
283.41
283.49
283.53
283.5
283.41
283.49
283.41
283.49
283.42
283.48
283.54
283.49
283.41
283.49
283.42
283.48
283.42
283.47
283.54
283.37
283.51
283.51
283.62
283.65
283.5
283.52
283.61
283.77
283.51
283.51
283.51
283.63
283.63
283.63
283.63
283.64
283.51
283.73
283.77
283.74
283.76
283.74
283.76
283.75
283.76
283.75
283.87
283.99
283.88
283.98
284.12
284.11
284.12
284.23
284.13
284.32
284.27
284.31
284.4
284.43
284.52
284.55
284.76
284.58
284.73
284.82
284.86
284.94
284.99
284.95
285.1
285.08
285.09
285.19
285.11
285.07
285.22
285.31
285.35
285.32
285.34
285.43
285.47
285.55
285.6
285.67
285.72
285.67
285.61
285.66
285.73
285.78
285.74
285.77
285.87
285.89
285.99
286.02
286.22
286.04
286.09
286.16
286.21
286.05
286.19
286.3
286.32
286.19
286.41
286.46
286.3
286.55
286.44
286.43
286.44
286.43
286.44
286.55
286.57
286.67
286.46
286.52
286.59
286.53
286.7
286.67
286.81
286.8
286.69
286.9
286.83
286.78
286.94
286.92
286.94
286.92
286.93
287.04
286.95
286.91
286.94
287.03
287.07
287.04
287.06
287.04
287.06
287.16
287.07
287.15
287.2
287.15
287.19
287.16
287.19
287.28
287.2
287.27
287.33
287.27
287.32
287.28
287.31
287.29
287.19
287.16
287.3
287.3
287.3
287.3
287.3
287.3
287.3
287.3
287.41
287.44
287.41
287.55
287.54
287.44
287.52
287.45
287.51
287.58
287.4
287.56
287.53
287.44
287.4
287.56
287.54
287.55
287.54
287.55
287.43
287.53
287.56
287.54
287.56
287.54
287.56
287.54
287.56
287.54
287.55
287.65
287.69
287.66
287.68
287.54
287.67
287.56
287.65
287.8
287.67
287.55
287.77
287.7
287.76
287.71
287.63
287.71
287.64
287.7
287.76
287.71
287.63
287.82
287.77
287.81
287.66
287.79
287.8
287.79
287.92
287.92
287.92
287.8
287.9
287.93
287.91
287.81
287.78
287.81
287.9
287.82
287.89
287.83
287.99
287.86
287.74
287.96
287.88
287.95
287.89
287.94
287.9
287.82
288
288.08
287.9
287.94
287.9
288.05
287.93
287.91
288.04
288.04
288.16
288.05
288.03
288.17
288.06
287.91
288.04
288.05
288.16
288.06
288.15
288.19
288.15
288.07
288.14
288.19
288.15
288.07
288.13
288.2
288.14
288.19
288.03
288.29
288.18
288.15
288.18
288.15
288.3
288.17
288.17
288.28
288.19
288.15
288.3
288.17
288.4
288.2
288.25
288.44
288.28
288.19
288.15
288.3
288.28
288.18
288.27
288.31
288.27
288.19
288.26
288.44
288.28
288.19
288.38
288.22
288.24
288.22
288.23
288.35
288.36
288.35
288.35
288.59
288.5
288.47
288.49
288.59
288.38
288.56
288.64
288.69
288.53
288.43
288.52
288.68
288.66
288.56
288.53
288.55
288.65
288.56
288.52
288.44
288.63
288.58
288.51
288.69
288.53
288.55
288.65
288.68
288.89
288.71
288.63
288.81
288.77
288.69
288.65
288.8
288.79
288.68
288.66
288.79
288.8
288.67
288.67
288.9
288.82
288.65
288.8
288.78
288.92
288.8
288.79
288.91
288.81
288.78
288.92
288.91
289.04
288.81
288.89
288.94
289.01
289.07
289.02
289.18
289.16
289.06
289.14
289.19
289.15
289.07
289.13
289.2
289.14
289.08
289.13
289.2
289.14
289.2
289.14
289.19
289.15
289.19
289.15
289.18
289.27
289.19
289.38
289.69
289.54
289.67
289.67
289.78
289.81
289.78
289.81
289.78
289.93
289.8
289.79
289.92
289.93
289.8
289.8
289.68
289.9
289.83
289.88
289.96
289.77
289.82
289.9
289.95
289.9
289.83
289.89
290.07
289.91
289.93
289.91
289.93
290.03
289.83
289.89
289.95
289.78
289.93
289.91
290.05
289.93
289.91
290.17
289.94
290.02
289.96
289.89
289.95
290.02
290.08
290.02
290.07
290.15
289.97
290
289.97
289.99
290.1
290
290.21
290.15
290.08
290.14
289.97
290.11
290.11
289.99
290.22
290.14
290.09
290.13
290.21
290.14
290.2
290.15
290.31
290.29
290.19
290.16
290.18
290.41
290.33
290.4
290.57
290.42
290.43
290.43
290.54
290.57
290.42
290.55
290.55
290.56
290.43
290.54
290.45
290.53
290.58
290.54
290.45
290.64
290.6
290.52
290.71
290.66
290.58
290.53
290.69
290.67
290.57
290.66
290.58
290.65
290.59
290.52
290.7
290.55
290.56
290.79
290.59
290.76
290.62
290.5
290.72
290.64
290.6
290.75
290.62
290.73
290.76
290.61
290.86
290.64
290.72
290.65
290.59
290.76
290.73
290.75
290.74
290.63
290.84
290.78
290.83
290.67
290.69
290.79
290.82
290.8
290.81
290.8
290.93
290.83
290.79
290.95
290.92
290.83
290.78
290.83
290.78
290.95
290.8
290.93
290.94
290.82
290.8
290.94
290.93
291.06
290.95
290.92
290.94
290.81
290.93
291.06
290.94
290.93
290.94
290.93
291.06
290.83
290.9
291.08
291.04
291.08
290.93
290.94
291.05
290.96
291.03
290.97
291.02
291.1
290.91
291.08
291.05
291.07
291.05
291.07
291.05
291.07
291.06
291.18
291.08
291.16
291.09
291.03
291.21
291.17
290.97
290.9
290.97
291.14
291.12
291.01
291.23
291.15
291.11
291.14
291.12
291.13
291.13
291.12
291.13
291
291.12
291.12
291.25
291.14
291.12
291.13
291.12
291.12
291.13
291.12
291.13
291.12
291.14
291.11
291.26
291.13
291.12
291.01
291.23
291.16
291.1
291.03
291.2
291.06
291.06
291.18
291.07
291.17
291.08
291.05
291.19
290.95
291.03
291.21
291.05
291.08
291.04
291.08
291.04
291.2
290.94
291.05
291.19
291.19
290.94
291.05
291.19
291.07
290.93
291.05
291.07
291.18
290.96
291.03
291.09
291.16
290.98
291.01
291.22
290.92
291.06
291.06
291.06
291.18
291.08
291.05
291.19
291.07
291.05
291.07
291.05
291.07
291.05
291.19
291.07
291.06
291.18
291.08
291.05
291.07
291.05
291.19
290.95
291.16
291.1
291.03
291.21
291.05
291.07
291.05
291.07
291.05
291.07
291.05
291.19
291.07
291.05
291.07
291.05
291.07
291.05
291.07
291.06
291.07
291.06
291.07
291.06
291.06
290.94
291.05
291.08
291.05
290.96
290.91
290.96
291.03
290.97
291.02
290.98
291.01
290.99
291
291.12
290.89
291.09
291.03
291.09
291.04
290.97
291.02
291.1
290.91
291.07
291.05
291.07
291.06
290.95
291.04
291.08
290.81
291.04
291.08
290.92
291.06
290.94
291.05
290.95
291.04
290.97
291.02
291.21
290.81
291.04
291.08
291.04
291.2
290.94
291.05
291.07
291.05
291.07
291.06
291.06
291.06
290.94
291.04
290.96
291.03
291.09
291.04
291.08
291.04
290.96
291.15
290.99
291.12
291.01
290.98
291.13
290.76
291.09
291.04
291.08
291.05
290.95
291.04
291.08
291.04
290.96
290.91
291.07
291.06
290.95
290.93
290.94
291.05
290.95
291.04
290.96
291.03
290.97
291.02
291.1
290.91
291.07
291.05
291.07
291.06
291.06
291.06
291.06
291.06
291.06
291.07
290.94
291.05
291.07
291.06
291.07
291.06
291.06
291.06
291.18
291.08
291.04
291.08
291.04
291.08
291.04
291.08
291.16
291.21
290.93
290.94
291.17
291.09
290.92
291.07
291.05
291.07
290.94
291.05
291.07
291.05
291.07
291.05
291.19
290.95
291.04
291.08
291.04
291.08
291.05
290.96
291.03
291.09
291.04
291.08
291.04
291.08
291.05
291.19
291.07
291.05
291.07
291.17
291.09
291.04
291.09
291.04
291.09
291.04
291.08
290.92
291.18
291.07
291.17
291.09
291.04
291.08
291.16
291.1
291.03
291.09
291.15
291.1
291.02
291.09
291.03
291.09
291.04
290.96
291.15
291.11
291.02
291.1
291.03
291.21
291.17
291.2
291.29
291.1
291.15
291.11
291.14
291.23
291.15
291.22
291.16
291.1
291.15
291.22
291.16
291.21
291.05
291.19
291.19
291.07
291.06
291.18
291.2
291.06
291.18
291.19
291.19
291.19
291.19
291.19
291.19
291.07
291.18
291.2
291.18
291.08
291.17
291.33
291.19
291.19
291.19
291.18
291.43
291.22
291.16
291.21
291.17
291.21
291.17
291.08
291.28
291.23
291.27
291.12
291.12
291.25
291.14
291.12
291.25
291.26
291.24
291.26
291.24
291.27
291.12
291.37
291.27
291.24
291.26
291.25
291.26
291.25
291.25
291.37
291.26
291.24
291.26
291.25
291.26
291.25
291.25
291.37
291.27
291.24
291.15
291.34
291.18
291.2
291.3
291.21
291.29
291.33
291.42
291.34
291.29
291.21
291.41
291.36
291.28
291.23
291.27
291.47
291.3
291.32
291.31
291.44
291.45
291.19
291.3
291.32
291.31
291.32
291.32
291.19
291.3
291.21
291.29
291.22
291.28
291.35
291.17
291.2
291.3
291.33
291.3
291.33
291.55
291.36
291.28
291.35
291.41
291.36
291.28
291.35
291.41
291.36
291.4
291.36
291.27
291.35
291.28
291.46
291.43
291.34
291.41
291.47
291.42
291.34
291.41
291.59
291.55
291.35
291.53
291.49
291.64
291.4
291.36
291.64
291.39
291.49
291.4
291.36
291.51
291.5
291.39
291.49
291.4
291.36
291.39
291.6
291.54
291.36
291.52
291.5
291.51
291.5
291.39
291.61
291.42
291.46
291.55
291.59
291.56
291.46
291.55
291.59
291.55
291.58
291.56
291.58
291.57
291.45
291.56
291.58
291.56
291.58
291.57
291.45
291.56
291.58
291.68
291.71
291.57
291.57
291.69
291.7
291.58
291.56
291.7
291.7
291.82
291.47
291.65
291.74
291.66
291.61
291.65
291.62
291.64
291.63
291.64
291.63
291.63
291.64
291.63
291.76
291.52
291.61
291.65
291.62
291.76
291.76
291.64
291.75
291.65
291.74
291.78
291.86
291.67
291.72
291.8
291.85
291.81
291.72
291.8
291.85
291.81
291.72
291.68
291.71
291.81
291.72
291.68
291.84
291.7
291.69
291.82
291.83
291.83
291.7
291.81
291.83
291.7
291.69
291.7
291.69
291.82
291.71
291.81
291.96
291.83
291.82
291.83
291.82
291.95
291.71
291.8
291.73
291.79
291.74
291.66
291.85
291.92
291.86
291.79
291.85
291.8
291.85
291.81
291.96
291.95
291.96
291.95
291.96
291.95
291.84
291.94
291.97
291.94
291.85
291.93
291.98
291.93
291.85
291.92
291.98
292.04
291.88
291.9
291.89
292.01
291.91
291.87
291.91
291.98
292.05
291.87
292.15
291.9
292
292.03
292.01
292.02
292.01
292.02
292.14
292.03
292
292.03
292.13
292.04
292
292.04
292
292.03
292.13
292.04
292.11
292.06
292.1
292.07
292.21
292.09
291.95
292.08
292.2
292.22
292.08
292.09
292.07
292.21
291.97
292.18
292.11
292.17
292.12
292.05
292.11
292.18
292.12
292.17
292.25
292.18
292.12
292.17
292.24
292.18
292.12
292.17
292.24
292.3
292.13
292.16
292.26
292.17
292.24
292.18
292.24
292.19
292.11
292.18
292.24
292.19
292.11
292.18
292.36
292.2
292.09
292.19
292.22
292.32
292.12
292.17
292.24
292.18
292.24
292.31
292.25
292.3
292.14
292.27
292.4
292.29
292.27
292.28
292.39
292.29
292.14
292.15
292.38
292.3
292.25
292.17
292.24
292.3
292.25
292.29
292.38
292.42
292.26
292.16
292.37
292.31
292.24
292.18
292.35
292.33
292.23
292.32
292.36
292.09
292.2
292.11
292.3
292.26
292.04
292.24
292.18
292.24
292.18
292.24
292.3
292.37
292.19
292.35
292.33
292.35
292.21
292.33
292.34
292.33
292.22
292.32
292.36
292.32
292.24
292.31
292.37
292.31
292.24
292.18
292.36
292.32
292.23
292.31
292.37
292.31
292.36
292.2
292.34
292.34
292.34
292.46
292.48
292.46
292.59
292.72
292.61
292.58
292.61
292.58
292.61
292.58
292.48
292.57
292.62
292.69
292.75
292.82
293.12
293.22
293.26
293.34
293.51
293.72
294.14
294.51
294.92
295.29
295.95
296.36
296.62
296.64
296.86
297.05
297.13
297.19
297.26
297.33
297.26
297.32
297.39
297.46
297.39
297.58
297.42
297.43
297.54
297.57
297.67
297.83
297.81
297.71
297.8
297.85
297.93
297.74
297.77
297.99
297.8
298.09
297.96
298.2
298.5
298.48
298.75
298.89
298.89
299.02
299.16
299.28
299.43
299.43
299.56
299.57
299.56
299.56
299.56
299.69
299.71
299.69
299.71
299.81
299.85
299.81
299.72
299.8
299.86
299.8
299.73
299.66
299.98
299.95
300.1
300.1
300.23
300.37
300.37
300.37
300.5
300.52
300.5
300.64
300.77
300.79
300.65
300.64
300.77
300.91
300.79
300.77
300.79
300.65
300.64
300.77
300.79
300.77
300.78
300.78
300.78
300.77
300.78
300.9
300.93
301.03
300.94
300.76
301.05
301.06
301.04
301.06
301.04
300.93
301.03
301.07
301.03
301.07
301.03
301.07
301.16
301.09
301.02
301.21
301.17
301.33
301.19
301.44
301.35
301.42
301.49
301.43
301.36
301.41
301.37
301.4
301.38
301.27
301.37
301.4
301.51
301.41
301.38
301.4
301.38
301.27
301.37
301.28
301.36
301.16
301.21
301.17
301.2
301.17
301.07
301.03
301.07
301.04
301.06
301.04
300.93
300.9
300.92
301.04
301.06
301.04
300.93
300.9
300.93
300.91
300.79
300.77
300.79
300.65
300.77
300.79
300.76
300.79
300.64
300.78
300.78
300.91
300.67
300.62
300.79
300.77
300.79
300.65
300.76
300.92
300.78
300.9
300.8
300.89
300.94
300.77
300.92
301.04
300.93
301.03
300.95
301.01
300.96
300.88
300.95
300.88
300.94
300.76
300.92
301.04
300.93
300.9
300.93
300.9
301.05
300.8
300.89
300.82
300.87
300.96
300.88
300.83
300.99
300.98
300.85
301.1
300.88
300.95
300.88
300.94
301.02
300.96
301
300.97
301
300.97
300.99
301.11
301
300.97
300.99
301.1
301
300.97
301
301.1
301.01
301.09
301.02
301.08
301.03
301.07
301.16
301.21
301.17
301.07
301.03
301.19
301.06
301.17
301.21
301.16
301.21
301.16
301.21
301.16
301.34
301.05
301.18
301.19
301.31
301.08
301.28
301.24
301.14
301.23
301.15
301.34
301.18
301.07
301.17
301.08
301.15
301.09
301.14
301.1
301.13
301.23
301.15
301.22
301.16
301.09
301.02
301.08
301.15
301.22
301.16
301.21
301.17
301.07
301.03
301.19
301.18
301.06
301.17
301.2
301.17
301.07
301.16
300.96
301
301.09
301.01
301.21
301.04
301.06
301.04
301.05
301.18
300.94
301.02
301.21
301.04
301.06
300.92
300.91
301.05
300.93
301.03
301.07
301.04
301.06
300.91
301.04
301.06
300.91
301.04
300.93
301.03
300.95
300.89
301.07
300.91
300.92
300.91
301.04
301.06
300.92
300.91
300.91
300.92
300.91
300.92
300.91
301.04
300.93
300.9
300.93
301.03
300.94
300.89
301.07
300.91
300.79
300.89
300.81
301.01
300.84
300.85
300.97
300.86
300.96
300.74
300.94
300.89
300.81
300.88
300.94
300.89
300.81
300.75
300.93
301.03
300.82
300.87
300.83
300.86
300.96
300.87
300.83
300.86
300.84
300.85
300.72
300.96
300.88
300.69
300.86
300.83
300.87
300.7
300.85
300.85
300.85
300.84
300.98
300.61
300.8
300.76
300.79
300.9
300.8
300.77
300.79
300.9
300.8
300.77
300.79
300.77
300.78
300.91
300.79
300.77
300.78
300.78
300.9
300.8
300.76
300.8
300.75
300.81
300.63
300.79
300.77
300.79
300.64
300.77
300.78
300.78
300.65
300.76
300.79
300.64
300.64
300.77
300.79
300.77
300.78
300.78
300.65
300.63
300.65
300.64
300.78
300.78
300.65
300.64
300.77
300.78
300.65
300.77
300.79
300.77
300.79
300.77
300.91
300.92
300.79
301.02
300.82
300.99
300.85
300.71
300.97
300.86
300.83
300.85
300.84
300.97
300.87
300.82
301
300.84
300.99
300.85
300.97
300.73
300.82
300.87
300.83
300.99
300.85
300.71
300.97
300.87
300.83
300.74
300.82
300.87
300.83
300.74
300.94
300.77
300.79
300.9
300.93
300.91
300.79
300.9
300.93
300.9
300.8
300.77
300.79
300.9
300.67
300.74
300.94
300.64
300.77
300.79
300.64
300.9
300.8
300.77
300.66
300.75
300.67
300.74
300.68
300.61
300.67
300.74
300.68
300.73
300.69
300.73
300.7
300.59
300.69
300.6
300.68
300.49
300.65
300.77
300.66
300.75
300.55
300.6
300.68
300.61
300.55
300.47
300.66
300.63
300.53
300.49
300.52
300.62
300.53
300.61
300.54
300.6
300.55
300.59
300.69
300.6
300.55
300.47
300.54
300.61
300.55
300.6
300.56
300.46
300.55
300.6
300.68
300.48
300.53
300.49
300.52
300.62
300.53
300.61
300.8
300.77
300.66
300.63
300.78
300.9
300.67
300.75
300.68
300.74
300.69
300.6
300.68
300.61
300.67
300.75
300.68
300.61
300.55
300.73
300.83
300.61
300.67
300.75
300.68
300.48
300.65
300.63
300.65
300.64
300.64
300.64
300.64
300.52
300.49
300.65
300.64
300.65
300.64
300.65
300.63
300.65
300.63
300.78
300.65
300.76
300.54
300.6
300.81
300.63
300.53
300.74
300.69
300.6
300.55
300.72
300.71
300.46
300.68
300.61
300.67
300.49
300.52
300.62
300.66
300.75
300.67
300.62
300.67
300.62
300.54
300.61
300.55
300.6
300.56
300.46
300.67
300.62
300.54
300.48
300.66
300.63
300.53
300.62
300.67
300.75
300.55
300.47
300.8
300.89
300.81
300.88
300.95
301.01
300.96
300.88
301.07
300.65
300.63
300.78
300.65
300.64
300.52
300.63
300.78
300.65
300.64
300.65
300.76
300.8
300.63
300.65
300.63
300.65
300.63
300.65
300.63
300.78
300.65
300.76
300.67
300.75
300.68
300.61
300.67
300.74
300.69
300.61
300.55
300.72
300.71
300.71
300.84
300.6
300.68
300.73
300.82
300.74
300.69
300.99
300.98
300.85
301.1
301.01
301.09
301.02
300.95
300.88
300.94
301.02
300.95
301.01
300.96
301
301.09
300.89
301.07
301.04
300.93
301.03
301.07
301.03
300.94
301.02
301.07
301.03
300.94
301.02
300.95
301.01
301.09
300.89
301.06
300.92
300.91
301.05
300.92
301.04
300.94
300.9
300.8
301.01
300.96
300.88
300.95
301.01
300.96
300.88
300.82
300.87
300.96
300.88
300.82
300.87
300.96
300.88
300.95
300.89
300.94
300.9
300.93
300.78
300.9
300.8
300.88
300.95
300.88
300.94
300.89
300.69
300.72
300.96
300.87
300.95
300.75
300.93
300.9
300.93
300.77
300.91
300.79
300.64
300.77
300.91
300.79
300.89
300.81
300.75
300.93
300.77
300.66
300.76
300.8
300.76
300.67
300.62
300.79
300.64
300.65
300.64
300.65
300.64
300.52
300.5
300.65
300.64
300.65
300.64
300.52
300.62
300.54
300.61
300.55
300.59
300.56
300.46
300.68
300.48
300.53
300.49
300.53
300.62
300.42
300.46
300.55
300.47
300.55
300.35
300.52
300.5
300.39
300.48
300.4
300.34
300.52
300.49
300.52
300.37
300.37
300.5
300.51
300.51
300.38
300.49
300.52
300.37
300.37
300.37
300.37
300.5
300.39
300.36
300.38
300.49
300.4
300.23
300.37
300.5
300.26
300.34
300.4
300.35
300.39
300.35
300.39
300.36
300.38
300.36
300.25
300.35
300.39
300.36
300.26
300.34
300.4
300.22
300.25
300.36
300.39
300.36
300.38
300.24
300.36
300.13
300.2
300.4
300.22
300.26
300.22
300.26
300.22
300.13
300.2
300.4
300.22
300.25
300.23
300.25
300.35
300.26
300.21
300.26
300.22
300.13
300.08
300.13
300.21
300.14
300.07
300.13
300.2
300.15
300.19
300.28
300.07
300.13
300.08
300.25
300.23
300.12
300.21
300.13
300.2
300.14
300.07
300.26
300.22
300.13
300.21
300.14
300.07
300.13
300.21
300.26
300.21
300.13
300.08
300.25
300.23
299.99
300.07
300
300.06
300.14
300.07
300
300.19
300.03
300.04
300.16
300.18
300.16
300.05
300.28
299.95
299.98
300.09
300.11
300.22
300
300.07
300.13
300.2
300.02
299.92
300.13
300.2
300.01
300.05
300.14
300.07
300.13
300.08
300
300.19
300.02
300.04
300.15
300.06
300.14
299.94
300.11
300.09
299.98
300.08
300.12
300.09
299.98
300.08
300.12
300.09
299.99
300.07
300.13
300.21
300.01
300.05
300.14
300.19
300.03
300.04
300.03
300.03
300.04
300.03
300.04
300.03
300.04
299.9
300.16
299.93
300
299.94
299.86
300.06
300.02
299.92
300
299.94
299.99
299.95
299.98
300.2
300.01
299.93
300
300.06
300.01
299.93
300.12
300.08
299.99
299.95
299.86
300.06
300.01
299.93
300
300.06
300.01
299.93
300
300.07
299.88
299.79
300
299.94
299.86
299.93
300
299.94
299.86
299.93
300
299.94
299.86
299.93
300
299.94
299.86
299.93
300
299.94
299.86
299.93
300.12
299.96
299.85
299.94
299.99
300.08
299.87
299.92
299.88
299.91
299.89
299.78
299.88
299.92
299.88
299.91
299.77
299.89
299.91
299.88
300.04
300.03
299.92
299.76
299.9
299.9
299.9
299.89
300.03
299.91
299.89
299.91
300.02
299.92
299.88
299.92
300.01
299.93
299.87
299.8
299.86
299.94
299.74
299.79
299.75
299.91
299.89
299.9
300.02
299.92
299.88
299.91
299.89
299.79
299.87
299.8
299.86
299.94
299.87
299.8
299.98
299.96
299.72
299.8
299.85
299.82
299.84
299.95
299.85
299.94
299.86
299.81
299.98
299.96
299.85
299.82
299.71
299.94
299.74
299.78
299.88
300.04
299.9
299.77
299.89
299.66
299.86
299.81
299.97
299.96
299.72
299.81
299.98
299.83
299.83
299.96
299.97
299.97
299.84
299.83
299.96
299.97
299.83
299.83
299.83
299.96
299.85
299.95
299.73
299.91
299.89
299.91
300.02
299.67
299.85
299.94
299.74
299.91
299.77
299.89
299.92
299.88
299.92
299.63
299.76
299.77
299.89
299.78
299.75
299.77
299.76
299.77
300.02
299.67
299.84
299.82
299.84
299.96
299.85
299.94
299.99
299.95
299.85
299.81
299.85
299.95
299.73
299.92
300.01
299.8
299.86
299.81
299.97
299.84
299.83
299.97
299.84
299.83
299.84
299.83
299.83
299.96
299.85
299.82
299.84
299.95
299.85
299.94
299.99
299.95
299.99
299.95
299.98
299.96
299.85
299.94
299.99
299.82
299.84
299.83
299.96
299.97
299.83
299.96
299.97
300.09
299.86
299.8
299.98
299.95
299.85
299.81
299.85
299.94
299.86
299.81
299.98
299.83
299.71
299.81
299.85
299.82
299.84
299.82
299.84
299.95
299.86
299.81
299.98
299.96
299.85
299.82
299.84
300.07
299.88
299.79
300
299.94
299.86
299.8
299.98
299.95
299.85
299.81
299.85
299.94
299.86
299.81
299.86
299.81
299.85
299.94
299.99
299.7
299.82
299.84
299.95
299.86
299.8
299.99
299.95
299.86
299.81
299.86
299.93
299.75
299.78
299.88
299.91
300.02
299.79
299.99
299.94
299.86
299.68
299.84
299.7
299.82
299.72
299.8
299.86
299.8
299.86
299.81
299.86
299.81
299.73
299.79
299.74
299.78
299.76
299.77
299.89
299.65
299.74
299.78
299.88
299.92
299.76
299.76
299.89
299.9
299.78
299.62
299.89
299.91
299.77
299.76
299.9
299.9
