438.26
437.83
438.21
438.14
438.2
438.15
438.19
438.43
438.23
438.13
438.21
438.14
438.21
438.41
438.5
438.43
438.23
438.4
438.52
438.14
438.47
438.73
438.5
438.7
438.53
438.67
438.55
438.65
438.57
438.36
438.82
438.42
438.5
438.43
438.75
438.75
438.48
438.45
438.74
438.77
438.73
438.77
438.73
439.04
438.76
439.01
439.06
439.02
439.05
439.03
439.05
439.3
439.08
439.27
439.38
439.02
439.33
439.33
439.32
439.34
439.32
439.34
439.31
439.34
439.31
439.61
439.35
439.31
439.34
439.32
439.34
439.32
439.33
439.32
439.33
439.33
439.33
439.33
439.06
439.29
439.09
438.99
439.35
439.04
439.31
439.08
439.27
439.38
439.28
439.38
439.29
439.37
439.29
439.36
439.57
439.67
439.31
439.62
439.35
439.58
439.39
439.27
439.65
439.32
439.34
439.59
439.65
439.32
439.61
439.63
439.61
439.62
439.61
439.89
439.65
439.58
439.65
439.59
439.65
439.32
439.6
439.63
439.61
439.9
439.65
439.59
439.91
439.63
439.61
439.63
440.15
439.98
439.58
439.66
439.85
439.96
439.86
439.95
439.87
439.94
439.88
439.94
439.88
439.93
439.89
439.92
439.89
439.92
440.17
439.95
439.87
440.22
439.91
439.9
440.19
439.94
439.88
439.66
439.58
439.65
439.59
439.65
439.59
439.64
439.6
439.63
439.6
439.9
439.92
439.9
439.65
439.59
439.92
439.63
439.88
439.67
439.85
439.97
439.86
439.96
440.14
439.99
439.84
440.24
440.16
440.23
440.17
439.95
440.14
439.98
440.11
440.01
440.09
440.03
440.07
440.32
440.09
440.29
440.11
440.27
440.13
439.99
440.38
440.59
440.13
440.26
440.15
440.24
440.44
440.27
440.41
440.29
440.39
440.58
440.15
440.24
440.43
440.27
440.41
440.56
440.43
440.27
440.41
440.56
440.7
440.31
440.37
440.59
440.67
440.61
440.39
440.31
440.37
440.59
440.4
440.3
440.66
440.35
440.34
440.63
440.37
440.59
440.4
440.57
440.43
440.27
440.41
440.56
440.43
440.26
440.15
440.24
440.17
440.22
440.18
440.21
440.47
440.23
440.17
440.22
439.65
439.59
439.65
439.31
439.35
439.03
439.32
439.33
439.33
439.33
439.34
439.59
439.65
439.32
439.61
439.62
439.62
439.35
439.59
439.65
439.59
439.37
439.83
439.71
439.81
439.46
439.48
439.75
439.77
439.76
439.49
439.74
439.51
439.72
439.53
439.97
439.59
439.64
439.6
439.9
439.92
439.63
439.88
439.93
439.89
439.92
439.63
439.61
439.9
439.91
439.91
439.64
439.87
439.94
439.88
440.2
439.92
439.89
439.93
439.89
439.93
439.89
439.93
440.16
440.23
439.9
440.19
440.21
440.19
440.2
440.19
440.47
440.23
439.9
440.19
440.21
440.46
440.24
440.16
439.97
440.13
440
439.83
439.98
439.57
439.66
439.85
439.69
439.82
439.72
439.52
439.97
440.39
440.31
440.37
440.33
440.35
440.62
440.37
440.59
440.4
440.3
440.38
440.59
440.4
440.57
440.42
440.82
440.48
440.5
440.76
440.53
440.73
440.55
440.71
440.85
440.73
440.83
440.74
440.54
440.72
440.29
440.66
440.62
440.64
440.63
440.36
440.87
440.43
440.54
440.45
440.25
440.7
440.58
440.41
440.83
440.74
440.54
440.72
440.83
440.74
440.54
440.72
440.83
441.01
440.85
440.99
441.14
441.29
440.89
440.96
441.17
440.99
441.15
441.01
441.13
441.3
441.15
441.28
441.17
441.26
441.18
440.98
441.43
441.31
440.59
439.86
439.68
439.57
439.39
439.55
439.41
439.53
439.43
439.24
439.4
439.54
439.15
439.21
439.16
439.2
439.44
439.23
439.15
439.21
439.16
439.2
439.44
438.96
439.37
439.29
439.36
439.58
439.38
439.29
439.63
439.61
439.62
439.62
439.61
439.63
439.6
439.91
439.63
439.61
439.62
439.62
439.89
439.93
439.61
439.9
439.92
440.17
439.95
439.87
440.21
440.19
439.93
440.16
440.51
441.02
440.85
440.99
441.15
441
441.13
441.02
441.67
441.65
441.66
441.93
441.7
441.35
440.29
439.03
438.77
437.93
436.25
435.83
435.4
434.97
434.56
434.11
434.24
434.12
433.97
433.83
433.69
433.54
433.15
432.7
432.57
432.15
431.74
431.31
431.16
430.77
429.82
429.34
429.25
428.55
428.13
427.72
427.31
426.64
426.45
426.36
426.69
426.41
426.14
426.13
426.13
425.88
425.58
425.59
425.58
425.6
425.07
425.02
425.06
425.03
424.8
424.75
424.04
423.64
423.24
423.08
423.22
422.6
422.63
422.61
422.63
422.37
422.09
422.08
421.83
421.8
421.33
421.24
421.32
421.01
420.78
420.48
420.49
420.49
419.99
419.93
419.73
419.41
419.2
418.89
418.66
418.37
418.13
418.1
417.88
417.82
417.39
417.27
417.38
417.04
416.85
416.53
416.56
416.29
415.79
415.74
415.55
415.23
415.02
414.72
414.5
414.21
413.98
413.7
413.46
413.19
412.71
412.65
412.22
412.12
411.74
411.35
411.22
410.62
410.43
410.59
410.22
409.83
409.47
409.3
408.99
408.78
408.5
408.04
407.98
407.56
407.23
406.81
406.72
405.87
405.45
405.13
404.95
404.65
404.22
403.68
403.23
403.16
402.76
402.2
402.23
402.21
401.55
401.45
401.31
400.75
400.33
400.03
400.07
399.59
399.1
398.64
398.36
397.94
397.41
397.22
396.94
396.53
395.99
395.8
395.52
395.12
394.59
394.4
393.9
393.69
393.22
392.98
392.54
392.49
392.32
392.03
391.85
391.36
390.93
390.66
390.25
389.54
389.09
388.85
388.22
387.91
387.34
386.78
386.43
385.89
384.91
383.89
383.13
382.34
381.8
381.24
380.92
380.18
379.61
379.09
378.74
378.44
377.7
377.34
377.06
376.7
376.42
376.06
375.79
375.23
375.12
375.21
375.14
374.61
374.48
374
373.83
373.4
372.98
372.57
372.15
371.93
371.34
371.08
370.92
370.3
369.87
369.48
368.86
368.83
368.47
368.21
367.68
367.38
366.89
366.56
366.28
365.76
365.47
365.16
364.87
364.38
364.06
363.59
363.25
362.99
362.3
361.98
361.71
361.21
360.91
360.26
360.28
359.72
359.11
358.93
358.18
357.57
357.2
356.81
356.43
356.05
355.84
355.68
355.28
355.1
354.9
354.55
354.5
354.02
353.9
353.84
353.53
353.63
353.18
353.4
353.04
352.83
352.66
352.63
352.49
352.26
351.94
352.04
351.96
351.85
351.78
351.49
351.57
351.32
351.02
350.76
350.48
350.37
350.13
349.82
349.92
349.66
349.37
349.1
349.17
348.77
348.61
348.58
348.43
348.22
348.06
347.86
347.87
347.69
347.33
347.31
347.16
347.12
346.99
346.76
346.79
346.77
346.45
346.39
346.28
346.2
346.1
345.85
345.73
345.16
345.16
345
344.63
344.46
344.27
344.1
344.08
343.94
343.73
343.75
343.73
343.75
343.56
343.56
343.73
343.91
343.92
343.91
343.91
343.91
344.08
344.27
344.43
344.79
344.81
344.79
345.14
345.18
344.81
344.8
344.81
344.8
344.81
344.63
344.62
344.63
344.62
344.63
344.62
344.3
344.41
344.32
344.06
343.79
343.85
343.97
343.69
343.94
343.72
343.75
343.73
343.42
343.52
343.27
343.15
343.42
343.19
343.22
343.19
343.22
343.2
343.21
343.36
343.4
343.37
343.39
343.54
343.58
343.55
343.41
343.36
343.4
343.37
343.4
343.37
343.56
343.4
343.36
343.4
343.36
343.57
343.55
343.57
343.55
343.57
343.55
343.74
343.74
343.57
343.38
343.55
343.73
343.74
343.73
343.74
343.89
344.1
343.75
343.89
344.1
344.08
344.1
344.25
344.29
344.42
344.31
344.4
344.49
344.57
344.67
344.58
344.5
344.73
344.7
344.72
344.88
344.9
344.89
344.72
345.04
344.93
345.03
345.11
345.38
345.31
345.2
345.29
345.55
345.66
345.73
345.84
346.08
346.04
346.07
346.21
346.42
346.41
346.42
346.58
346.77
346.95
346.62
346.91
347.17
347.11
347.16
347.12
347.49
347.51
347.32
347.49
347.51
347.83
347.89
347.84
348.05
348.04
347.88
348.19
348.26
348.37
348.28
348.35
348.63
348.56
348.62
348.73
348.81
348.91
348.82
348.9
349.18
349.1
349.34
349.31
349.33
349.48
349.52
349.66
349.88
349.86
349.88
350.04
350.07
350.39
350.45
350.57
350.64
350.75
350.66
350.73
351.02
350.94
350.84
350.92
351.02
351.11
351.04
351.09
351.39
351.3
351.38
351.49
351.57
351.67
351.58
351.66
351.77
351.84
351.96
351.86
351.94
352.21
352.15
352.2
352.34
352.39
352.52
352.58
352.71
352.6
352.52
352.58
352.7
352.77
352.71
352.76
352.89
352.95
352.9
352.94
353.26
353.16
353.07
353.15
353.26
353.34
353.44
353.35
353.43
353.54
353.44
353.7
353.83
353.55
353.79
353.76
353.95
353.97
353.77
353.95
354.14
353.98
354.11
354.01
354.26
354.23
354.06
354.4
354.27
354.39
354.28
354.39
354.46
354.58
354.46
354.75
354.67
354.92
354.52
354.7
354.9
354.9
354.73
354.87
354.93
355.05
355.12
355.23
355.32
355.41
355.52
355.42
355.69
355.98
355.73
355.94
356.13
355.95
356.12
355.96
356.28
356
356.07
356.36
356.29
356.34
356.31
356.33
356.5
356.52
356.51
356.33
356.67
356.55
356.48
356.54
356.85
356.58
356.46
356.56
356.47
356.72
356.51
356.69
356.9
356.53
356.85
356.75
356.66
356.92
357.06
357.11
357.07
357.28
357.45
357.48
357.64
357.86
358.03
358.06
358.21
358.61
358.81
358.64
359.15
359.25
359.34
359.45
359.71
359.85
360.08
360.43
361.4
361.49
361.39
361.67
361.42
361.83
361.46
361.79
362.24
362.59
363.2
363.42
363.4
363.79
363.82
363.99
364.02
363.99
364.02
364.19
364.41
364.59
364.43
364.38
364.42
364.39
364.41
364.58
364.62
364.59
364.61
364.6
364.8
365
364.82
364.79
365
365.19
365.02
365.17
365.23
365.36
365.25
365.34
365.46
365.35
365.45
365.55
365.47
365.53
365.48
365.52
365.68
365.35
365.45
365.36
365.63
365.39
365.41
365.4
365.41
365.4
365.22
365.19
365.58
365.81
365.8
365.81
365.8
365.81
365.42
365.39
365.42
365.39
365.23
365.18
365.04
364.97
364.84
364.58
364.63
364.4
364.41
364.22
364.19
364.03
363.61
363.61
363.43
363.4
363.06
362.8
362.84
362.62
362.07
361.99
361.52
361.37
361.14
360.96
360.95
360.59
360.36
360.01
359.78
359.6
359.04
358.62
358.63
358.25
357.87
357.47
357.29
356.91
356.53
355.96
355.75
355.4
355
354.63
354.6
354.1
353.83
353.54
353.26
352.64
352.48
352.1
351.9
351.39
350.95
350.83
350.41
350.09
349.67
349.53
349.13
348.81
348.4
348.08
347.84
347.55
347.11
346.99
346.75
346.3
346.01
345.93
345.66
345.57
344.97
344.66
344.42
343.64
342.82
342.72
342.31
342.01
341.45
341.44
340.96
340.72
340.45
340.03
339.91
339.53
339.22
339.16
338.9
338.8
338.41
338.09
337.9
337.42
337.05
336.72
336.69
336.4
335.87
335.52
335.52
335.04
334.83
334.38
334.31
334.06
333.65
333.69
333.82
333.7
333.5
333.2
333
332.7
332.5
332.36
332.02
331.69
331.52
331.2
331.17
331.04
330.55
330.05
330.03
329.74
329.38
329.24
329.06
328.76
328.57
328.13
327.91
327.65
327.27
327
326.78
326.37
326.28
326.07
325.95
325.76
325.47
325.28
325.29
325
324.8
324.68
324.48
324.37
324.16
324.06
323.99
324.06
323.84
323.89
323.69
323.58
323.38
323.27
322.77
322.91
322.64
322.3
322.3
322.15
321.99
321.99
321.7
321.52
321.38
321.36
321.23
321.05
320.92
320.89
320.92
320.61
320.58
320.61
320.44
320.44
320.3
320.28
320.15
320.12
320
320.1
320.16
319.82
319.97
319.84
319.95
319.86
319.65
319.69
319.65
319.69
319.51
319.38
319.35
319.24
319.19
319.23
319.2
319.23
319.2
319.22
319.06
318.77
318.74
318.77
318.74
318.62
318.44
318.46
318.31
318.29
318.31
318.29
318.31
318.15
318.29
318.45
318.46
318.45
318.46
318.59
318.62
318.44
318.32
318.42
318.48
318.29
318.45
318.59
318.62
318.59
318.62
318.73
318.78
318.88
318.8
318.86
319.09
318.89
319.07
319.05
319.21
319.22
319.07
319.2
319.09
319.18
319.25
319.33
319.4
319.19
319.52
319.52
319.66
319.69
319.66
319.69
319.8
319.71
319.78
319.3
318.71
318.52
318.25
318.49
318.56
318.64
318.57
318.64
318.71
318.94
318.74
318.91
318.9
318.91
319.05
319.07
319.05
319.21
319.21
319.35
319.24
319.33
319.4
319.34
319.53
319.51
319.53
319.65
319.84
319.82
319.84
319.96
320.28
320.15
320.26
320.45
320.43
320.59
320.6
320.59
320.88
320.92
320.89
321.06
321.2
321.37
321.36
321.37
321.66
321.84
321.97
322.01
322.12
322.46
322.74
322.79
322.89
323.1
323.21
323.26
323.51
323.59
323.52
323.73
323.69
324.02
324.03
324.02
324.18
324.18
324.33
324.5
324.5
324.64
324.67
324.79
324.98
324.96
325.28
325.3
325.43
325.61
325.6
325.61
325.75
325.78
325.9
325.94
326.06
326.25
326.23
326.4
326.41
326.55
326.58
326.55
326.73
326.72
326.88
326.89
326.88
326.89
327.03
326.91
327.01
327.22
327.34
327.09
327.15
327.25
327.31
327.27
327.45
327.6
327.61
327.76
327.77
328.22
327.98
328.04
328.14
328.35
328.47
328.52
328.47
328.66
328.65
328.66
328.66
328.8
329.13
329
329.12
329.16
329.28
329.33
329.43
329.65
329.77
329.82
329.92
329.98
330.24
330.17
330.38
330.51
330.39
330.5
330.55
330.81
330.74
330.8
330.9
331.12
331.09
331.12
331.25
331.29
331.56
331.48
331.55
331.64
331.87
331.83
332.01
332.01
332.16
332.35
332.33
332.35
332.48
332.69
332.51
332.82
332.86
332.98
332.87
333.12
333.22
333.29
333.23
333.59
333.44
333.56
333.62
333.71
333.96
333.73
334.09
334.24
334.12
334.22
334.46
334.4
334.61
334.57
334.61
334.73
334.95
334.91
334.95
335.07
335.28
335.09
335.26
335.27
335.58
335.47
335.4
335.62
335.75
335.8
335.91
336.29
336.27
336.45
336.46
336.6
336.64
336.61
336.79
336.95
336.97
336.95
337.13
337.29
337.31
337.45
337.65
337.8
337.99
337.82
337.97
338
338.13
338.19
338.13
338.18
338.45
338.39
338.44
338.56
338.44
338.55
338.45
338.71
338.64
338.7
338.81
338.88
338.97
338.9
338.96
339.07
339.13
339.25
339.3
339.26
339.45
339.46
339.28
339.76
339.66
339.75
339.83
339.93
340.17
340.12
340.16
340.29
340.33
340.46
340.51
340.47
340.5
340.48
340.49
340.65
340.68
340.82
340.69
340.96
340.89
340.95
341.07
341.12
341.08
341.11
341.25
341.29
341.26
341.28
341.44
341.46
341.44
341.29
341.59
341.65
341.6
341.48
341.59
341.65
341.93
341.69
341.73
341.7
341.72
341.87
341.74
341.85
341.92
341.86
342.07
342.22
342.09
342.03
342.08
342.21
342.1
342.19
342.28
342.36
342.46
342.37
342.28
342.52
342.48
342.51
342.49
342.5
342.67
342.52
342.65
342.7
342.5
342.5
342.5
342.5
342.67
342.52
342.82
342.88
342.83
342.71
342.81
342.89
342.82
342.88
342.99
342.9
342.81
342.72
342.8
342.9
342.98
342.91
342.8
342.9
342.97
342.91
342.96
343.09
342.98
342.91
342.64
342.88
342.67
342.68
342.68
342.51
342
341.62
341.63
341.29
341.26
340.96
341.05
341.14
341.06
341.13
341.07
341.29
341.26
341.12
341.08
341.28
341.27
341.27
341.44
341.13
340.91
340.61
340.87
340.98
341.04
340.99
340.87
341.14
341.22
341.15
341.05
341.31
341.41
341.32
341.56
341.52
341.38
341.67
341.58
341.82
341.78
341.65
341.76
341.83
341.93
341.84
341.92
342.18
341.96
341.99
342.29
342.36
342.3
342.35
342.31
342.67
342.53
342.48
342.69
342.66
343.02
342.87
343
343.05
343.17
343.07
343.16
343.41
343.52
343.43
343.51
343.77
343.71
343.76
343.88
343.94
343.89
344.1
344.25
344.28
344.26
344.28
344.43
344.63
344.79
344.65
344.77
344.83
345.11
345.04
345.1
345.38
345.47
345.4
345.45
345.74
345.66
345.73
345.83
346.08
345.87
346.05
346.23
346.24
346.24
346.23
346.41
346.42
346.41
346.59
346.61
346.75
346.97
346.78
347.11
347.16
347.29
347.18
347.1
347.51
347.66
347.36
347.62
347.74
347.8
347.75
347.79
348.1
347.99
348.09
348.17
348.27
348.35
348.46
348.53
348.64
348.54
348.63
348.72
348.64
348.71
348.83
348.89
349.18
348.93
349.14
349.3
349.33
349.31
349.33
349.49
349.69
349.52
349.66
349.72
349.83
349.91
349.66
350.06
350.05
350.23
350.07
350.21
350.26
350.39
350.28
350.54
350.49
350.53
350.68
350.71
350.86
350.56
350.82
350.94
351.18
351.14
351
351.12
351.37
351.5
351.38
351.31
351.55
351.69
351.57
351.85
351.95
352.03
351.97
352.19
352.35
352.21
352.33
352.39
352.52
352.58
352.7
352.6
352.86
352.98
353.05
352.99
353.04
353.18
353.23
353.36
353.25
353.34
353.61
353.38
353.75
353.79
353.75
353.79
353.92
353.82
354.07
354.39
354.28
354.91
355.24
355.85
355.85
355.85
356.02
356.23
356.22
356.41
356.25
356.39
356.45
356.57
356.64
356.75
356.84
356.76
357.01
357.15
357.03
357.31
357.25
357.29
357.62
357.51
357.61
357.7
357.81
357.71
357.98
357.92
358.15
358.13
358.14
358.32
358.35
359.04
359.16
359.23
359.54
359.27
359.5
359.67
359.7
359.67
359.88
360.06
360.45
361.21
361.46
361.79
362.05
362.01
362.05
362.02
362.04
362.2
362.25
362.39
362.45
362.4
362.63
362.62
362.62
362.8
362.83
362.99
363.04
363
363.03
363
363.03
363.19
363.23
363.38
363.25
363.36
363.46
363.37
363.63
363.59
363.62
363.78
363.65
363.58
363.82
363.98
364.03
364.17
364.05
364.16
364.25
364.17
364.24
364.36
364.44
364.56
364.46
364.54
364.66
364.74
364.68
364.72
364.87
364.93
365.07
364.94
365.06
364.96
365.04
365.15
365.25
365.35
365.26
365.34
365.65
365.57
365.45
365.55
365.65
365.94
365.69
365.71
365.89
365.73
365.87
365.94
366.07
366.14
366.08
366.13
366.27
366.34
366.47
366.54
366.67
366.75
366.68
366.74
366.69
366.73
367.07
366.96
367.24
367.38
367.63
367.99
368.05
368.19
368.07
368.18
368.27
368.19
368.26
368.4
368.65
368.44
368.43
368.82
368.85
368.83
368.84
368.84
368.84
368.85
369.02
369.07
369.02
369.26
369.24
369.26
369.42
369.67
369.45
369.46
369.45
369.65
369.66
369.84
369.88
369.85
369.87
369.86
369.87
369.86
370.25
370.3
370.25
370.3
370.45
370.32
370.23
370.7
370.48
370.48
370.68
370.69
370.87
370.72
370.85
370.93
370.86
370.93
371.05
371.14
371.06
371.13
371.26
371.34
371.27
371.33
371.28
371.33
371.68
371.57
371.47
371.75
371.7
371.74
371.71
371.92
371.93
371.72
371.91
371.94
371.92
371.93
372.12
372.15
372.13
371.95
372.1
372.35
372.33
372.15
372.31
372.56
372.54
372.36
372.52
372.77
372.95
372.79
372.73
372.59
372.71
372.8
372.72
372.98
372.95
372.78
373.13
373.22
373.14
373.21
373.15
373.4
373.38
373.39
373.38
373.38
373.58
373.6
373.59
373.79
373.62
373.57
373.62
373.57
374.01
373.82
373.98
373.84
373.96
374.06
373.97
374.05
374.18
374.27
374.18
374.45
374.42
374.45
374.62
374.67
374.62
374.47
374.6
374.68
374.8
374.71
374.59
374.89
374.82
374.88
374.83
374.88
375.03
374.9
375.01
375.31
375.05
375.08
375.25
375.3
375.45
375.32
375.24
375.51
375.47
375.31
375.25
375.5
375.48
375.3
375.46
375.32
375.63
375.76
375.45
375.52
375.85
375.57
375.61
375.98
375.85
375.96
375.87
375.95
375.88
375.94
375.89
375.93
376.09
375.95
376.07
376.37
376.11
376.13
376.12
376.32
376.55
376.35
376.33
376.54
376.56
376.34
376.53
376.56
376.54
376.55
376.54
376.55
376.75
376.77
376.75
376.77
376.96
376.79
376.93
377.01
376.94
377
376.95
377.19
377.18
377.19
377.39
377.41
377.59
377.64
377.59
377.63
377.6
377.63
377.8
377.85
377.81
377.65
377.79
378.07
377.82
377.83
378.03
377.86
378.2
377.91
377.96
378.12
378.17
378.14
378.16
378.15
378.15
378.36
378.36
378.37
378.36
378.38
378.35
378.58
378.37
378.56
378.59
378.77
378.81
378.78
378.81
378.99
378.83
378.97
379.05
379.38
379.3
379.16
379.28
379.58
379.53
379.36
379.51
379.38
379.7
379.63
379.69
379.84
379.71
379.82
379.92
380.03
379.94
380.02
380.16
380.23
380.17
380.02
380.16
380.44
380.4
380.22
380.38
380.44
380.4
380.43
380.41
380.62
380.65
380.62
380.65
380.61
380.86
380.64
381.04
381.09
381.05
381.09
381.06
381.28
381.29
381.28
381.5
381.51
381.51
381.5
381.31
381.47
381.54
381.47
381.53
381.68
381.76
381.68
381.76
381.48
381.73
381.52
381.7
381.75
381.9
381.77
381.88
382
381.68
381.96
381.92
382.16
382.16
381.96
382.13
382.4
382.16
382.16
382.16
382.16
382.36
382.19
382.34
382.42
382.55
382.44
382.32
382.64
382.56
382.63
382.57
382.83
382.81
382.63
382.78
382.86
382.78
382.85
382.79
383.05
383.03
382.84
383
383.07
383.21
383.1
383.19
383.12
383.17
383.34
383.39
383.56
383.41
383.34
383.39
383.76
383.64
383.55
383.63
383.77
383.64
383.75
383.66
383.94
383.7
383.7
383.7
383.69
383.92
383.92
383.92
384.12
383.96
383.88
384.17
383.91
384.14
383.94
384.11
384.17
384.12
384.16
384.34
384.18
384.32
384.2
384.3
384.22
384.28
384.44
384.3
384.63
384.76
384.65
384.74
384.66
384.72
384.68
384.71
384.89
384.73
384.87
384.96
384.89
384.94
384.9
384.93
385.12
384.96
385.1
385.18
385.31
385.2
385.09
385.19
385.52
385.23
385.47
385.48
385.47
385.7
385.49
385.67
385.72
385.48
385.68
385.72
385.88
385.75
385.64
385.96
385.88
385.75
385.85
386.2
386.1
386.19
386.1
386.4
386.34
386.39
386.14
386.36
386.58
386.39
386.35
386.39
386.56
386.83
386.59
386.59
386.8
386.83
386.81
387.04
386.84
386.8
386.84
387.01
386.87
386.98
387.1
386.99
387.09
386.99
387.09
387.21
387.32
387.22
387.1
387.19
387.55
387.23
387.3
387.45
387.53
387.66
387.56
387.64
387.79
387.65
387.57
387.63
388
387.89
387.78
387.87
388.01
387.88
388
388.1
388.44
388.15
388.19
388.36
388.63
388.4
388.38
388.41
388.59
388.44
388.56
388.68
388.57
388.67
388.57
388.88
388.82
388.88
388.82
389.09
389.06
389.09
389.06
389.3
389.3
389.09
389.27
389.33
389.27
389.33
389.28
389.54
389.52
389.54
389.52
389.75
389.55
389.72
389.58
389.69
389.82
389.7
389.81
389.92
390.04
389.93
390.03
390.15
390.05
390.13
390.29
390.15
390.27
389.95
390.23
390.41
390.47
390.42
390.46
390.64
390.7
390.43
390.45
390.65
390.69
390.87
390.71
390.85
390.95
390.86
390.94
390.65
390.68
390.87
390.92
390.88
390.92
391.1
391.15
391.11
391.15
391.12
391.14
391.12
391.13
390.91
391.1
391.37
391.13
391.34
391.37
391.35
391.58
391.6
391.36
391.57
391.61
391.57
391.6
391.58
391.81
391.83
391.81
391.83
391.81
392.04
392.05
392.04
392.05
392.05
392.05
392.05
392.05
392.05
392.26
392.3
392.26
392.29
392.27
392.51
392.3
392.48
392.54
392.27
392.51
392.73
392.54
392.7
392.56
392.68
392.8
392.69
393.01
392.94
392.79
392.92
393.03
392.93
393.02
392.93
393.22
393.19
393.22
393.19
393.22
393.41
393.24
393.39
393.48
393.4
393.47
393.41
393.68
393.44
393.43
393.66
393.89
393.91
393.67
393.88
393.7
393.86
393.94
393.87
393.93
394.09
393.96
394.07
393.98
394.05
394.21
394.07
394.2
394.08
394.19
394.09
394.39
394.35
394.17
394.11
394.37
394.58
394.4
394.34
394.61
394.6
394.6
394.6
394.6
394.83
394.62
394.58
394.83
395.06
395.08
394.84
395.04
394.88
395.01
395.35
395.05
395.31
395.08
395.06
395.29
395.32
395.51
395.57
395.29
395.53
395.32
395.5
395.57
395.51
395.78
395.55
395.53
395.76
395.78
395.77
395.78
395.99
396.03
395.77
395.99
396.02
395.99
396.02
396
396.24
396.25
396.24
396.25
396.24
396.25
396.24
396.25
396.24
396.47
396.27
396.44
396.52
396.66
396.54
396.64
396.78
396.65
396.77
396.66
396.76
397.11
397.26
397.35
397.72
397.61
397.48
397.37
397.47
397.6
397.49
397.59
397.51
397.57
397.52
397.34
397.5
397.58
397.52
397.34
397.72
397.61
397.7
397.63
397.91
397.89
397.68
397.87
397.92
398.1
397.94
397.86
398.15
398.35
398.17
398.33
398.41
398.56
398.43
398.32
398.42
398.34
398.4
398.35
398.61
398.62
398.61
398.62
398.6
398.85
398.85
398.86
399.07
399.12
398.84
399.09
399.09
399.31
399.12
399.29
399.36
399.3
399.13
399.27
399.38
399.51
399.18
399.23
399.41
399.47
399.43
399.46
399.44
399.45
399.68
399.47
399.88
399.52
399.61
399.76
399.85
399.77
399.84
400
400.09
400.02
399.85
399.99
400.1
400.23
399.89
399.96
399.91
399.94
399.92
399.93
400.15
399.95
400.13
399.98
400.11
400.22
400.35
400.23
400.33
400.25
400.32
400.26
400.31
400.5
400.33
400.48
400.57
400.49
400.33
400.47
400.8
400.74
400.56
400.5
400.78
400.76
400.55
400.52
400.76
400.78
400.76
400.79
400.75
401.01
400.78
400.76
400.77
400.99
400.8
400.97
400.82
401.17
401.1
400.93
401.31
401.2
401.07
400.96
401.28
401.23
401.27
401.23
401.04
400.98
401.03
400.77
400.99
401.25
401.02
401.23
401.27
401.46
401.52
401.47
401.52
401.7
401.54
401.45
401.53
401.68
401.56
401.66
401.8
401.68
401.79
401.69
401.78
401.47
401.73
401.74
401.96
402
401.73
401.74
401.95
402.23
401.76
401.94
401.79
401.92
401.81
401.89
401.83
401.88
402.07
402.12
402.09
401.88
402.07
402.12
402.31
402.14
402.06
402.13
402.3
402.15
402.06
401.91
402.27
402.18
402.25
402.19
402.24
402.2
402.23
402.44
402.26
402.42
402.5
402.43
402.49
402.44
402.48
402.68
402.5
402.66
402.52
402.41
402.51
402.65
402.53
402.63
402.77
402.65
402.76
402.89
403
402.68
402.73
402.69
402.94
402.96
402.71
402.93
402.96
402.94
402.96
402.95
402.72
403.15
403
403.13
403.02
403.11
403.04
402.87
403.02
403.11
403.04
403.1
403.28
402.89
403.23
402.94
403.18
403.21
403.18
403.21
403.17
403.21
403.17
403.22
403.4
403.25
403.14
403.47
403.4
403.47
403.18
403.44
403.44
403.44
403.21
403.18
403.2
403.64
403.26
403.35
403.51
403.37
403.27
403.12
403.49
403.62
403.28
403.34
403.53
403.35
403.51
403.6
403.53
403.58
403.55
403.56
403.79
403.58
403.54
403.57
403.78
403.82
403.79
403.58
403.77
403.83
403.79
403.82
403.8
403.81
403.8
403.57
404.01
403.86
403.76
403.84
404.23
403.9
403.95
404.14
404.19
404.16
403.95
404.14
404.2
404.38
404.22
404.13
404.43
404.41
404.42
404.42
404.41
404.66
404.43
404.4
404.65
404.45
404.38
404.68
404.64
404.91
404.67
404.88
404.93
404.89
404.69
404.64
404.91
405.14
404.94
404.88
405.16
404.92
404.89
404.93
405.12
404.96
404.86
405.19
405.12
405.18
405.13
405.18
405.36
405.21
405.1
405.43
405.37
405.2
405.11
405.42
405.38
405.42
405.39
405.41
405.39
405.64
405.43
405.6
405.69
405.61
405.69
405.61
405.68
405.84
405.71
405.81
405.74
405.33
405.69
405.6
405.69
405.61
405.68
405.84
405.94
405.85
405.7
405.82
406.19
406.33
406.22
406.07
406.2
406.31
406.23
406.29
406.48
406.31
406.46
406.32
406.45
406.57
406.47
406.55
406.72
406.33
406.67
406.61
406.66
406.39
406.62
406.66
406.61
406.89
406.64
406.86
406.67
406.84
406.69
406.82
406.94
406.83
406.93
406.84
406.92
406.63
406.87
407.13
406.9
407.1
406.93
407.08
407.18
407.09
407.17
407.1
407.16
406.88
407.11
407.39
407.14
407.13
407.14
407.36
407.16
407.34
407.19
407.32
407.21
407.3
407.22
407.28
407.24
407.27
407.25
407.03
407.23
407.28
407.01
406.77
406.98
406.8
406.96
406.82
406.94
407.07
406.96
406.82
406.94
406.84
406.92
407.09
406.94
407.07
406.96
407.05
407.2
406.84
407.15
407.12
407.14
407.13
407.13
407.37
407.39
407.38
407.15
407.35
407.4
407.37
407.39
407.37
407.15
407.35
407.41
407.36
407.63
407.63
407.63
407.64
407.62
407.64
407.62
407.65
407.62
407.65
407.61
407.65
407.84
407.68
407.58
407.68
407.59
407.44
407.33
407.43
407.33
407.43
407.34
407.42
407.35
407.41
407.35
407.64
407.63
407.4
407.6
407.66
407.37
407.85
407.68
407.82
407.94
407.59
407.67
407.59
407.9
407.86
407.9
408.09
408.16
407.86
407.9
408.1
408.16
408.1
407.93
408.07
408.19
408.07
408.18
408.08
408.18
408.32
408.2
408.06
408.19
408.07
408.42
408.11
408.38
408.38
408.38
408.38
408.38
408.62
408.41
408.59
408.9
408.63
408.63
408.63
408.86
408.9
408.86
408.67
408.83
408.93
408.83
408.93
408.84
408.92
408.61
408.65
408.85
408.45
408.78
408.74
408.76
408.99
408.55
408.48
408.52
408.96
408.57
408.45
408.55
408.7
408.56
408.69
408.58
408.68
408.82
408.7
409.03
408.99
409.02
409.23
409.04
409.21
408.83
408.93
409.07
409.18
409.09
409.17
409.1
409.39
409.15
409.11
409.15
409.34
409.43
409.34
409.43
409.11
409.39
409.14
409.36
409.4
409.37
409.16
409.11
409.15
409.35
409.17
409.09
409.4
409.37
409.16
409.35
409.65
409.62
409.64
409.63
409.87
409.9
409.63
409.87
409.66
410.08
409.96
409.82
410.18
410.1
410.17
410.11
410.16
410.12
409.92
410.09
410.18
410.34
410.44
410.35
410.19
410.56
410.49
410.54
410.27
410.26
410.51
410.04
410.46
410.33
410.44
410.35
410.19
410.33
410.45
410.11
410.4
410.39
410.39
410.16
410.12
410.4
410.15
410.37
410.18
410.34
410.2
410.32
410.46
410.57
410.48
410.55
410.73
410.8
410.74
410.55
410.72
410.81
410.74
410.79
410.75
410.78
411
410.8
411.22
411.09
410.96
411.08
411.21
411.33
411.23
411.08
411.45
411.37
411.2
411.35
411.45
411.6
411.47
411.35
411.69
411.87
411.95
411.89
411.93
412.14
412.19
412.15
412.18
412.4
412.44
412.17
412.4
412.21
412.12
412.45
412.16
412.18
412.15
412.18
412.39
412.46
412.15
412.19
412.15
412.43
412.18
412.16
412.41
412.2
411.9
411.92
411.9
412.16
411.93
412.13
412.2
412.37
412.23
411.87
412.19
412.15
411.94
412.12
411.97
412.09
412.23
412.1
412.46
412.39
412.22
412.12
412.21
412.37
412.24
412.11
412.46
412.39
412.45
412.39
412.45
412.64
412.48
412.37
412.7
412.65
412.46
412.63
412.72
412.87
412.51
412.58
412.77
412.83
412.55
412.54
412.56
412.53
412.57
412.53
412.81
412.56
412.79
412.58
413
412.64
412.47
412.62
412.49
412.6
412.74
412.38
412.45
412.64
412.47
412.62
412.49
412.6
412.51
412.59
412.76
412.85
412.77
412.6
412.98
413.13
412.76
412.84
413.01
412.87
412.99
412.89
412.73
413.11
413.02
413.1
413.03
412.85
413.01
412.87
413.22
412.93
412.93
413.18
413.19
413.19
412.95
413.17
413.21
412.94
412.92
412.95
413.15
413.23
412.91
412.96
413.14
412.76
412.84
413.26
412.88
413.22
412.92
413.19
413.19
413.19
413.19
413.19
412.95
413.16
413.21
413.17
412.97
413.14
413.24
412.91
413.2
413.18
412.95
413.15
413.22
413.16
412.98
412.89
412.97
412.66
412.7
412.9
412.73
412.63
412.48
412.6
412.74
412.62
412.73
412.62
412.73
412.87
412.75
412.85
412.77
412.83
413.03
412.6
412.98
412.65
412.7
412.89
412.97
412.9
412.72
412.64
412.95
412.92
412.71
412.65
412.94
412.69
412.66
412.69
412.9
412.97
412.9
413.2
413.17
413.2
413.17
413.44
413.21
413.41
413.48
413.18
413.44
413.22
413.16
413.45
413.44
413.45
413.44
413.46
413.44
413.46
413.44
413.22
413.16
413.21
413.16
413.21
413.17
413.45
413.21
413.17
412.97
413.14
413
412.88
412.99
412.88
412.98
412.89
412.97
412.9
412.73
412.87
412.99
412.88
412.74
412.86
413
412.87
412.75
412.85
412.77
412.83
412.79
412.58
413.01
412.87
412.75
412.61
412.97
412.9
412.72
412.87
412.75
412.86
412.76
412.84
413.02
412.86
412.76
412.61
412.74
412.62
412.72
412.64
412.71
412.89
412.73
412.87
412.75
412.62
412.49
412.6
412.75
412.62
412.49
412.6
412.74
412.62
412.72
412.64
412.71
412.89
412.49
412.6
412.74
412.62
412.73
412.64
412.71
412.89
412.49
412.84
412.78
412.82
412.79
412.58
413
412.63
412.71
412.65
412.94
412.94
412.93
412.94
412.92
412.71
412.88
412.99
412.88
412.99
412.88
412.99
412.88
412.98
412.88
413.22
412.92
412.94
412.92
412.95
412.92
412.71
412.65
412.94
412.92
412.94
412.69
412.91
412.96
412.91
412.72
412.88
412.98
412.65
412.7
412.65
412.94
412.93
412.7
412.89
412.97
413.14
413
412.87
412.99
413.12
413.02
413.09
413.28
413.11
413.27
413.12
413.25
413.13
413
413.11
413.26
413.12
413.25
413.13
413.24
413.38
413.26
413.36
413.28
413.34
413.3
413.33
413.31
413.31
413.33
413.3
413.57
413.33
413.55
413.35
413.53
413.61
413.54
413.6
413.79
413.62
413.53
413.61
413.78
413.63
413.76
413.65
413.98
413.71
413.93
413.99
413.92
414.24
413.95
414.21
414.22
413.98
414.17
414.26
414.17
414.02
414.13
414.3
414.38
414.33
414.11
414.32
414.36
414.82
414.17
414.5
414.45
414.5
414.45
414.5
414.45
414.5
414.45
414.49
414.22
414.46
414.25
414.18
414.49
414.22
414.21
414.46
414.49
414.22
414.21
414.46
414.49
414.46
414.25
414.43
414.52
414.43
414.51
414.44
414.75
414.47
414.71
414.75
414.72
414.74
414.72
414.98
415
414.98
415
414.98
415
414.98
415
415.22
415.04
414.95
415.03
415.19
415.3
414.96
415.02
415.2
415.29
415.21
415.29
415.21
415.52
415.25
415.24
415.49
415.28
415.46
415.55
415.47
415.54
415.71
415.57
415.45
415.56
415.7
415.59
415.68
415.85
415.69
415.83
415.7
416.06
415.75
415.78
416
416.05
416.01
416.04
416.02
416.03
416.02
416.03
416.27
416.3
416.28
416.05
416.01
416.04
416.01
416.03
416.02
416.03
416.51
416.33
416.24
416.32
416.25
416.31
416.26
416.3
416.51
416.33
416.25
416.32
416.5
416.58
416.51
416.57
416.52
416.32
416.5
416.59
416.51
416.58
416.52
416.57
416.77
416.59
416.75
416.62
416.73
416.63
416.47
416.86
416.76
416.84
416.77
416.83
416.78
416.58
416.76
416.85
416.77
416.83
416.78
416.58
416.76
416.61
416.73
416.63
416.72
416.64
416.46
416.62
416.47
416.61
416.49
416.59
416.51
416.58
416.52
416.57
416.53
416.32
416.26
416.3
416.27
416.05
416
416.29
416.05
416
416.05
415.76
416.02
416.03
415.78
415.75
415.78
415.75
415.54
415.47
415.54
415.47
415.54
415.23
415.26
415.23
415.02
415.2
415.05
414.93
415.04
414.7
414.76
414.7
414.52
414.67
414.54
414.41
414.53
414.18
414.25
414.19
414
414.16
414.02
413.9
414.01
413.67
413.97
413.72
413.45
413.45
413.44
413.45
413.2
413.18
413.19
412.95
412.91
412.72
412.88
412.99
412.4
412.44
412.41
412.44
412.17
412.17
412.16
412.17
411.69
411.87
411.71
411.61
411.47
411.35
411.45
411.12
410.94
411.1
410.96
410.84
410.48
410.31
410.46
410.09
410.18
410.1
410.17
410.11
409.92
409.62
409.65
409.86
409.67
409.37
409.39
409.61
409.19
409.08
409.18
409.09
408.93
409.07
408.96
408.81
408.71
408.79
408.96
408.58
408.44
408.32
408.66
408.14
407.89
407.88
407.88
407.88
407.64
407.62
407.64
407.63
407.4
407.6
407.66
407.61
407.42
407.35
407.41
407.59
407.43
407.34
407.19
407.31
407.21
407.06
406.97
407.04
406.98
406.8
407.2
406.85
406.92
406.86
406.91
406.87
406.67
406.84
406.92
406.62
406.65
406.63
406.64
406.63
406.4
406.38
406.63
406.65
406.16
406.35
406.42
406.36
406.18
406.1
406.17
406.11
406.16
406.12
406.16
405.9
405.66
406.1
405.95
405.84
405.94
405.62
405.67
405.86
405.46
405.8
405.51
405.53
405.53
405.28
405.73
405.34
405.45
405.35
405.44
405.59
405.23
405.08
405.68
405.62
405.44
405.37
405.2
405.58
405.25
405.3
405.72
405.35
405.44
405.36
405.66
405.41
405.39
405.64
405.65
405.42
405.38
405.42
405.37
405.66
405.41
405.63
405.66
405.63
405.42
405.38
405.88
405.68
405.61
405.68
405.38
405.88
405.68
405.62
405.67
405.63
405.66
405.63
405.66
405.87
405.69
405.84
405.94
405.85
405.93
405.86
405.92
405.87
405.69
405.84
405.94
406.08
405.97
406.06
406.22
406.07
405.97
405.82
406.19
406.1
405.95
405.85
405.94
406.09
406.19
406.1
405.95
406.31
406.23
406.29
406.48
406.08
406.2
406.32
406.45
406.34
406.2
406.32
406.45
406.33
406.44
406.35
406.42
406.36
406.18
406.34
406.43
406.58
406.45
406.33
406.67
406.61
406.43
406.59
406.68
406.83
406.47
406.55
406.71
406.57
406.47
406.55
406.94
406.84
406.46
406.78
406.74
406.77
406.98
406.8
406.96
406.82
406.71
406.8
406.72
406.79
406.97
406.58
406.68
406.83
406.93
407.08
406.95
406.83
406.93
406.85
407.14
407.13
407.13
407.14
407.35
407.41
407.12
407.38
407.61
407.42
407.34
407.42
407.57
407.69
407.34
407.65
407.61
407.65
407.61
407.65
407.38
407.85
407.67
407.59
407.9
407.87
407.89
407.87
407.66
408.07
407.95
407.82
407.94
408.06
408.2
407.84
408.15
408.34
408.18
408.32
408.44
408.33
408.19
408.31
408.45
408.55
408.7
408.56
408.69
408.81
408.71
408.79
408.96
408.81
408.95
408.82
408.94
409.07
408.96
409.05
408.98
409.03
408.99
409.01
409.24
409.04
409.22
409.29
409.23
409.28
409.24
409.26
409.49
409.29
409.23
409.28
409.48
409.3
409.45
409.56
409.47
409.54
409.71
409.8
409.73
409.79
409.74
409.54
409.95
409.6
409.89
409.89
410.12
410.17
409.87
410.14
409.9
410.12
409.92
410.1
409.94
410.08
410.19
410.09
410.17
410.35
410.19
410.09
410.41
410.38
410.16
410.35
410.19
410.33
410.2
410.32
410.69
410.37
410.41
410.62
410.67
410.63
410.42
410.6
410.68
410.61
410.67
410.86
410.69
410.84
410.71
410.58
410.93
410.87
410.69
410.61
410.67
410.85
410.7
410.83
411.19
411.12
410.94
410.86
410.93
411.1
410.96
411.08
411.21
411.1
411.2
411.11
411.19
410.88
411.14
411.16
411.14
411.4
411.17
411.13
411.16
410.9
411.12
411.18
411.36
411.45
411.13
411.41
411.4
411.41
411.16
411.38
411.43
411.38
411.42
411.62
411.46
411.59
411.48
411.33
411.47
411.34
411.46
411.59
411.72
411.6
411.47
411.58
411.97
411.86
411.72
411.6
411.95
411.88
411.7
411.62
411.22
410.85
410.94
410.86
410.93
410.87
410.68
411.08
410.98
410.83
411.2
411.11
411.19
410.88
411.14
411.16
411.14
411.4
411.17
411.14
411.16
411.38
411.42
411.39
411.42
411.16
411.38
411.43
411.38
411.43
411.38
411.43
411.38
411.43
411.38
411.67
411.41
411.63
411.68
411.4
411.64
411.68
411.4
411.64
411.67
411.64
411.67
411.88
411.7
411.62
411.93
411.9
411.93
411.9
411.92
411.67
411.89
411.7
411.85
411.97
412.1
412.23
411.87
412.19
412.15
412.18
412.15
412.18
412.15
412.18
412.16
412.18
411.92
412.14
412.19
412.14
412.19
412.38
412.22
412.11
412.22
412.36
412.25
412.09
412.23
411.87
412.43
412.42
412.43
412.18
412.39
412.45
412.63
412.48
412.6
412.75
412.38
412.94
412.45
412.63
412.48
412.6
412.75
412.61
412.74
412.86
412.76
412.84
412.78
412.34
412.97
412.9
412.73
412.87
412.75
412.85
413.01
412.86
412.76
412.84
413.02
412.86
412.76
412.84
413.02
412.86
413
412.88
412.98
412.89
412.97
412.9
412.96
413.15
412.98
412.89
413.2
413.18
413.19
412.95
413.15
413.23
413.15
413.23
413.15
413.23
413.15
413.47
413.18
413.2
413.18
413.44
413.45
413.45
413.2
