122.86
122.87
122.86
122.87
122.86
122.87
122.86
122.87
122.86
122.87
122.86
122.94
122.87
122.93
122.95
122.93
122.95
122.94
122.95
122.94
122.87
122.93
122.96
122.93
122.96
122.93
122.95
122.94
122.95
122.94
123.03
123.03
122.95
123.02
123.03
122.94
122.94
122.94
122.94
122.94
122.87
122.93
122.88
122.93
122.96
122.93
122.88
122.92
122.96
122.93
122.96
122.93
122.96
122.93
122.95
123.01
122.89
122.92
122.97
123
122.97
122.92
123.04
122.93
122.95
122.94
122.95
123.01
122.96
122.93
122.95
122.93
122.95
122.94
122.95
122.94
122.95
122.94
122.94
122.94
122.94
122.95
122.94
122.95
122.94
122.95
122.94
122.95
122.94
122.95
122.94
123.03
122.95
122.94
122.95
122.94
122.95
122.94
122.94
122.94
122.87
122.86
122.87
122.93
122.88
122.85
122.95
122.94
122.87
122.85
122.95
122.94
122.79
122.84
122.88
122.85
122.88
122.85
122.87
122.85
122.87
122.85
122.79
122.77
122.87
122.86
122.87
122.86
122.86
122.86
122.86
122.86
122.79
122.78
122.79
122.85
122.8
122.77
122.79
122.85
122.8
122.84
122.88
122.84
122.88
122.85
122.88
122.85
122.87
122.85
122.87
122.93
122.88
122.85
122.88
122.93
122.88
122.84
122.88
122.92
122.89
122.92
122.97
122.92
122.96
122.93
123.04
123.02
122.96
123.01
123.04
123.01
122.96
122.93
123.03
123.02
122.95
123.01
123.04
123.02
122.96
122.93
123.03
123.02
122.95
123.01
123.03
123.02
122.96
123.01
123.04
123.01
123.03
123.02
123.11
123.11
123.03
123.02
123.03
123.02
123.03
123.03
123.02
123.03
123.02
123.03
123.02
123.03
123.02
123.11
123.11
123.11
123.03
123.02
123.11
123.03
123.02
123.11
123.11
123.11
123.1
123.11
123.1
123.11
123.03
123.1
123.19
123.11
123.1
123.19
123.11
123.1
123.11
123.18
123.12
123.17
123.13
123.08
123.21
123.17
123.13
123.09
123.12
123.17
123.13
123.16
123.14
123.15
123.14
123.15
123.23
123.23
123.23
123.23
123.31
123.16
123.22
123.16
123.29
123.26
123.21
123.25
123.29
123.26
123.21
123.25
123.29
123.25
123.21
123.25
123.29
123.25
123.29
123.26
123.28
123.26
123.28
123.27
123.27
123.35
123.28
123.34
123.29
123.26
123.28
123.34
123.29
123.33
123.3
123.33
123.38
123.33
123.3
123.33
123.38
123.33
123.29
123.33
123.3
123.4
123.39
123.4
123.39
123.39
123.4
123.39
123.47
123.4
123.39
123.4
123.47
123.48
123.47
123.48
123.55
123.49
123.54
123.5
123.53
123.51
123.53
123.59
123.53
123.51
123.53
123.51
123.6
123.6
123.52
123.6
123.6
123.6
123.6
123.6
123.6
123.6
123.59
123.61
123.67
123.62
123.58
123.62
123.58
123.69
123.59
123.61
123.67
123.62
123.58
123.62
123.66
123.7
123.59
123.61
123.67
123.7
123.59
123.69
123.68
123.68
123.6
123.67
123.69
123.6
123.6
123.67
123.69
123.67
123.69
123.67
123.77
123.84
123.86
123.84
123.86
123.92
123.87
123.91
123.88
123.9
123.88
123.89
123.97
123.82
123.88
123.82
123.95
123.92
123.87
123.91
123.95
123.91
123.87
123.9
123.96
123.91
123.95
123.91
123.95
123.92
123.94
123.92
124.02
124.01
123.94
124
123.95
123.99
123.96
123.91
124.03
124
123.95
124
124.03
124
123.95
123.99
123.96
123.99
123.96
123.98
124.04
123.99
123.96
123.98
124.04
123.99
123.96
123.99
124.04
123.92
124.02
124.01
124.02
124.01
124.01
124.02
124.01
124.02
124.01
124.02
124.01
124.02
124
124.1
124.09
124.1
124.01
124.09
124.1
124.1
124.02
124.09
124.11
124.09
124.03
124
124.1
124.1
124.02
124.09
124.11
124.09
124.1
124.09
124.1
124.09
124.1
124.1
124.1
124.1
124.1
124.1
124.17
124.19
124.1
124.18
124.11
124.17
124.12
124.16
124.2
124.08
124.11
124.16
124.2
124.17
124.19
124.17
124.19
124.17
124.19
124.17
124.19
124.17
124.19
124.18
124.18
124.1
124.17
124.19
124.17
124.19
124.17
124.19
124.17
124.19
124.18
124.19
124.18
124.18
124.18
124.26
124.19
124.25
124.2
124.16
124.27
124.18
124.18
124.18
124.18
124.25
124.27
124.26
124.27
124.18
124.26
124.27
124.26
124.27
124.18
124.26
124.27
124.18
124.26
124.27
124.26
124.27
124.26
124.27
124.26
124.27
124.26
124.27
124.26
124.27
124.26
124.27
124.26
124.27
124.26
124.27
124.26
124.26
124.26
124.26
124.26
124.26
124.26
124.26
124.34
124.27
124.25
124.2
124.24
124.28
124.25
124.28
124.25
124.28
124.25
124.27
124.25
124.27
124.26
124.27
124.26
124.27
124.26
124.27
124.34
124.28
124.25
124.27
124.25
124.35
124.27
124.34
124.28
124.25
124.28
124.33
124.29
124.32
124.3
124.31
124.38
124.39
124.39
124.31
124.38
124.32
124.38
124.32
124.37
124.33
124.29
124.32
124.37
124.32
124.37
124.33
124.36
124.33
124.36
124.34
124.36
124.34
124.35
124.34
124.35
124.42
124.36
124.42
124.44
124.42
124.44
124.42
124.44
124.43
124.43
124.43
124.43
124.43
124.43
124.43
124.43
124.44
124.43
124.44
124.42
124.44
124.42
124.44
124.5
124.37
124.4
124.46
124.4
124.46
124.41
124.53
124.42
124.52
124.43
124.43
124.43
124.51
124.44
124.42
124.52
124.43
124.43
124.43
124.51
124.52
124.43
124.51
124.52
124.51
124.44
124.42
124.52
124.51
124.52
124.51
124.44
124.5
124.53
124.5
124.53
124.5
124.52
124.5
124.52
124.43
124.59
124.53
124.58
124.69
124.67
124.77
124.68
124.68
124.68
124.68
124.68
124.68
124.76
124.69
124.75
124.7
124.74
124.79
124.75
124.86
124.84
124.78
124.75
124.78
124.83
124.79
124.83
124.87
124.83
124.79
124.82
124.87
124.83
124.87
124.83
124.79
124.83
124.87
124.83
124.79
124.9
124.88
124.82
124.88
124.83
124.87
124.91
124.96
124.92
124.87
124.91
124.88
124.9
124.88
124.9
124.96
124.91
124.96
124.91
124.95
124.92
124.95
124.93
124.94
124.93
124.94
124.93
124.93
125.02
124.94
124.93
125.02
125.02
124.94
125.01
125.02
125.09
124.95
124.92
125.03
125.01
125.02
125.02
125.02
125.02
125.02
125.1
125.11
125.1
125.03
125.09
125.03
125.08
125.04
125
125.04
125.08
125.04
125
125.04
125.08
125.05
125.07
125.05
125.07
125.06
125.06
125.14
125.07
125.05
125.07
125.06
125.06
125.14
125.15
125.07
125.06
125.15
125.07
125.14
125.15
125.14
125.15
125.14
125.15
125.15
125.07
125.22
125.16
125.13
125.16
125.21
125.17
125.13
125.08
125.2
125.18
125.11
125.1
125.19
125.19
125.11
125.18
125.19
125.19
125.11
125.18
125.2
125.18
125.11
125.17
125.2
125.26
125.21
125.17
125.2
125.26
125.21
125.25
125.21
125.24
125.22
125.24
125.3
125.25
125.22
125.24
125.3
125.33
125.23
125.23
125.31
125.24
125.3
125.25
125.29
125.25
125.29
125.26
125.28
125.27
125.28
125.27
125.35
125.36
125.27
125.27
125.35
125.45
125.28
125.19
125.19
125.03
124.69
124.52
124.2
123.7
123.13
122.78
122.4
121.98
121.59
121.25
120.88
120.4
119.94
119.54
119.24
119
118.71
118.46
118.18
117.93
117.52
117.11
116.7
116.3
115.9
115.63
115.4
115
114.74
114.43
114.18
113.94
113.75
113.46
113.13
112.89
112.65
112.35
112.04
111.68
111.42
111.27
111.15
111
110.76
110.6
110.43
110.33
110.17
109.94
109.72
109.54
109.33
109.15
109.07
108.78
108.67
108.47
108.29
108.15
107.92
107.77
107.72
107.65
107.48
107.27
107.16
107.03
106.85
106.72
106.66
106.54
106.42
106.3
106.17
106.05
105.93
105.87
105.8
105.75
105.68
105.57
105.5
105.45
105.38
105.33
105.31
105.28
105.14
105.15
105.14
105.09
104.97
105.02
104.92
104.95
104.87
104.83
104.81
104.71
104.69
104.6
104.57
104.48
104.5
104.48
104.44
104.48
104.45
104.42
104.39
104.41
104.4
104.35
104.39
104.36
104.33
104.3
104.33
104.3
104.27
104.24
104.27
104.19
104.26
104.25
104.15
104.24
104.21
104.24
104.22
104.23
104.17
104.11
104.05
104.05
104.11
104.11
104.11
104.05
104.05
104
104.1
104.01
104.03
104.01
104.03
104.02
104.02
104.07
104.03
104.02
104.03
104.07
104.03
104.07
104.04
104.01
104.03
104.12
104.04
104
104.09
104.07
104.09
104.07
104.09
104.13
104.09
104.07
104.14
104.14
104.14
104.14
104.19
104.15
104.13
104.2
104.14
104.2
104.2
104.2
104.2
104.2
104.19
104.25
104.26
104.2
104.19
104.26
104.26
104.26
104.25
104.26
104.25
104.26
104.25
104.26
104.25
104.31
104.26
104.3
104.32
104.31
104.32
104.31
104.38
104.37
104.32
104.36
104.38
104.37
104.33
104.3
104.38
104.37
104.32
104.31
104.38
104.37
104.32
104.36
104.38
104.31
104.32
104.37
104.38
104.37
104.32
104.36
104.39
104.36
104.33
104.36
104.39
104.36
104.33
104.35
104.39
104.36
104.39
104.36
104.39
104.42
104.39
104.41
104.45
104.42
104.39
104.41
104.45
104.47
104.45
104.47
104.51
104.47
104.51
104.53
104.57
104.54
104.51
104.53
104.57
104.59
104.57
104.59
104.63
104.59
104.57
104.59
104.68
104.66
104.62
104.6
104.67
104.67
104.67
104.67
104.67
104.67
104.67
104.73
104.78
104.79
104.73
104.79
104.79
104.9
104.86
104.89
104.86
104.89
104.86
104.94
104.99
105
104.99
105
105.05
105.06
105
104.99
105.11
105.06
105.05
105.06
105.1
105.07
105.04
105.06
105.16
105.02
105.08
105.14
105.09
105.08
105.14
105.15
105.14
105.2
105.09
105.13
105.21
105.15
105.14
105.09
105.13
105.16
105.08
105.09
105.13
105.16
105.13
105.15
105.13
105.21
105.14
105.2
105.15
105.14
105.15
105.19
105.21
105.2
105.21
105.25
105.22
105.19
105.22
105.25
105.22
105.19
105.22
105.24
105.28
105.25
105.28
105.31
105.34
105.31
105.28
105.3
105.34
105.31
105.34
105.37
105.4
105.37
105.4
105.43
105.4
105.42
105.46
105.37
105.45
105.44
105.45
105.49
105.45
105.49
105.52
105.49
105.46
105.49
105.52
105.55
105.52
105.54
105.53
105.54
105.53
105.48
105.58
105.55
105.52
105.6
105.59
105.6
105.65
105.6
105.64
105.61
105.64
105.67
105.64
105.66
105.7
105.67
105.64
105.61
105.58
105.49
105.57
105.56
105.51
105.5
105.56
105.57
105.56
105.62
105.62
105.57
105.61
105.69
105.68
105.75
105.74
105.75
105.74
105.86
105.81
105.86
105.82
105.91
105.89
105.85
105.88
105.85
105.93
105.92
105.88
105.91
105.94
105.92
105.93
105.92
105.99
105.99
105.93
105.98
105.94
105.97
106
105.98
106.05
105.99
105.99
106.04
106.05
106.05
105.99
106.04
106.05
106.1
106.06
106.03
106.11
106.04
106.05
106.1
106.11
106.05
106.1
106.11
106.1
106.06
106.09
106.12
106.1
106.12
106.1
106.17
106.16
106.17
106.16
106.17
106.17
106.23
106.17
106.22
106.18
106.21
106.25
106.21
106.24
106.22
106.24
106.22
106.3
106.23
106.29
106.29
106.29
106.29
106.29
106.29
106.29
106.29
106.29
106.29
106.35
106.36
106.35
106.36
106.35
106.36
106.35
106.3
106.34
106.3
106.33
106.42
106.34
106.36
106.35
106.36
106.35
106.41
106.36
106.4
106.36
106.4
106.37
106.33
106.37
106.34
106.42
106.35
106.41
106.41
106.41
106.47
106.42
106.4
106.48
106.47
106.48
106.41
106.47
106.48
106.47
106.48
106.47
106.48
106.47
106.54
106.53
106.54
106.53
106.54
106.59
106.54
106.58
106.55
106.58
106.61
106.58
106.67
106.65
106.67
106.65
106.67
106.71
106.67
106.7
106.74
106.7
106.68
106.7
106.74
106.76
106.74
106.76
106.75
106.81
106.87
106.76
106.86
106.83
106.85
106.83
106.85
106.83
106.85
106.89
106.91
106.9
106.91
106.9
106.91
106.9
106.9
106.9
106.9
106.96
106.91
106.9
106.91
106.96
106.91
106.95
106.98
106.96
106.92
106.95
106.98
106.95
106.92
106.95
106.98
106.95
106.98
106.96
107.03
107.08
106.98
106.95
106.98
107.01
106.98
106.95
106.98
107.01
106.98
106.95
106.98
106.95
106.92
106.95
106.98
106.9
106.85
106.83
106.85
106.89
106.8
106.82
106.86
106.83
106.8
106.82
106.8
106.82
106.81
106.76
106.8
106.76
106.8
106.82
106.8
106.76
106.8
106.77
106.79
106.77
106.79
106.83
106.85
106.78
106.78
106.78
106.72
106.77
106.73
106.77
106.73
106.76
106.74
106.7
106.73
106.71
106.67
106.64
106.73
106.66
106.66
106.71
106.72
106.72
106.66
106.65
106.66
106.71
106.61
106.53
106.6
106.59
106.54
106.47
106.42
106.47
106.48
106.47
106.48
106.47
106.42
106.41
106.42
106.47
106.42
106.4
106.48
106.41
106.35
106.35
106.35
106.35
106.3
106.29
106.29
106.34
106.3
106.34
106.31
106.27
106.3
106.28
106.36
106.29
106.29
106.29
106.29
106.35
106.3
106.28
106.3
106.28
106.3
106.29
106.35
106.35
106.29
106.34
106.3
106.34
106.31
106.33
106.37
106.34
106.31
106.33
106.31
106.33
106.32
106.38
106.33
106.37
106.4
106.31
106.45
106.33
106.37
106.39
106.43
106.39
106.43
106.4
106.42
106.46
106.43
106.34
106.36
106.35
106.3
106.28
106.3
106.29
106.24
106.28
106.24
106.28
106.24
106.27
106.31
106.22
106.24
106.22
106.23
106.28
106.24
106.22
106.24
106.28
106.18
106.15
106.24
106.22
106.18
106.16
106.17
106.22
106.24
106.28
106.3
106.28
106.3
106.29
106.35
106.3
106.28
106.35
106.35
106.36
106.35
106.41
106.41
106.41
106.41
106.42
106.41
106.42
106.41
106.42
106.47
106.48
106.41
106.47
106.53
106.54
106.47
106.53
106.54
106.59
106.55
106.58
106.61
106.58
106.61
106.59
106.61
106.64
106.67
106.65
106.61
106.7
106.68
106.69
106.74
106.7
106.74
106.7
106.79
106.77
106.73
106.76
106.8
106.77
106.79
106.77
106.85
106.84
106.85
106.9
106.91
106.96
106.92
106.89
106.97
106.96
106.91
106.95
106.92
106.95
106.98
107.01
107.04
107.01
107.04
107.07
107.1
107.08
107.1
107.14
107.22
107.27
107.23
107.2
107.22
107.26
107.29
107.32
107.35
107.39
107.35
107.32
107.41
107.45
107.36
107.38
107.36
107.43
107.43
107.37
107.42
107.44
107.43
107.43
107.49
107.5
107.49
107.5
107.55
107.5
107.54
107.57
107.61
107.63
107.61
107.63
107.67
107.63
107.61
107.63
107.67
107.69
107.67
107.69
107.73
107.7
107.78
107.77
107.84
107.84
107.84
107.9
107.9
107.9
107.9
107.96
107.96
107.97
107.9
107.96
107.97
108.02
107.97
107.96
108.09
108.03
108.08
108.16
108.14
108.28
108.28
108.34
108.34
108.4
108.35
108.33
108.41
108.4
108.35
108.34
108.41
108.41
108.41
108.41
108.4
108.41
108.4
108.41
108.4
108.41
108.4
108.47
108.47
108.47
108.47
108.47
108.47
108.47
108.47
108.53
108.48
108.52
108.49
108.51
108.55
108.51
108.49
108.51
108.56
108.45
108.54
108.52
108.6
108.53
108.47
108.52
108.54
108.53
108.48
108.52
108.55
108.58
108.55
108.52
108.61
108.53
108.6
108.66
108.66
108.72
108.67
108.65
108.73
108.78
108.74
108.71
108.73
108.78
108.68
108.7
108.74
108.65
108.67
108.71
108.68
108.64
108.67
108.65
108.67
108.53
108.53
108.53
108.59
108.6
108.47
108.53
108.54
108.47
108.47
108.47
108.47
108.47
108.41
108.46
108.41
108.4
108.41
108.4
108.47
108.47
108.41
108.46
108.47
108.41
108.41
108.47
108.47
108.47
108.47
108.47
108.53
108.54
108.53
108.54
108.53
108.54
108.53
108.54
108.53
108.6
108.6
108.6
108.54
108.59
108.6
108.59
108.6
108.65
108.67
108.65
108.67
108.71
108.73
108.71
108.79
108.84
108.8
108.84
108.81
108.77
108.92
108.91
108.86
108.9
108.87
108.9
108.93
108.9
108.87
108.83
108.87
108.84
108.86
108.84
108.86
108.84
108.86
108.85
108.86
108.79
108.79
108.85
108.85
108.79
108.78
108.79
108.73
108.78
108.79
108.78
108.85
108.85
108.79
108.79
108.73
108.72
108.73
108.72
108.73
108.66
108.66
108.66
108.6
108.6
108.6
108.6
108.6
108.54
108.59
108.61
108.59
108.6
108.53
108.59
108.54
108.53
108.48
108.46
108.48
108.46
108.42
108.4
108.41
108.4
108.35
108.33
108.35
108.33
108.29
108.27
108.17
108.25
108.19
108.18
108.25
108.13
108.18
108.13
108.11
108.13
108.12
107.95
108.04
108.02
107.97
107.95
107.97
107.96
107.91
107.89
107.91
107.9
107.85
107.77
107.83
107.78
107.77
107.78
107.77
107.78
107.71
107.72
107.71
107.72
107.65
107.65
107.65
107.65
107.59
107.64
107.6
107.52
107.53
107.52
107.53
107.52
107.53
107.52
107.47
107.46
107.47
107.46
107.46
107.46
107.41
107.45
107.47
107.45
107.41
107.39
107.41
107.39
107.35
107.33
107.35
107.33
107.29
107.26
107.28
107.21
107.27
107.28
107.27
107.28
107.22
107.21
107.27
107.28
107.21
107.21
107.21
107.21
107.21
107.21
107.21
107.16
107.2
107.16
107.14
107.16
107.14
107.16
107.14
107.16
107.14
107.16
107.14
107.1
107.14
107.16
107.14
107.1
107.08
107.16
107.09
107.09
107.15
107.1
107.08
107.1
107.14
107.1
107.08
107.16
107.15
107.1
107.08
107.1
107.14
107.1
107.08
107.16
107.15
107.1
107.14
107.22
107.15
107.09
107.14
107.1
107.14
107.11
107.13
107.17
107.14
107.11
107.13
107.11
107.13
107.11
107.12
107.18
107.13
107.17
107.19
107.17
107.19
107.18
107.13
107.17
107.19
107.23
107.25
107.24
107.25
107.3
107.26
107.23
107.25
107.35
107.27
107.22
107.32
107.29
107.26
107.23
107.26
107.23
107.25
107.3
107.26
107.29
107.26
107.29
107.27
107.28
107.27
107.34
107.34
107.28
107.28
107.27
107.34
107.28
107.33
107.34
107.33
107.34
107.34
107.34
107.4
107.35
107.39
107.41
107.45
107.36
107.44
107.48
107.44
107.42
107.44
107.48
107.44
107.42
107.44
107.43
107.44
107.49
107.44
107.54
107.51
107.48
107.45
107.47
107.51
107.48
107.51
107.48
107.44
107.48
107.51
107.54
107.51
107.48
107.45
107.53
107.52
107.47
107.45
107.47
107.52
107.47
107.45
107.47
107.45
107.41
107.45
107.47
107.39
107.4
107.4
107.34
107.45
107.36
107.38
107.36
107.37
107.37
107.31
107.36
107.32
107.3
107.26
107.29
107.2
107.22
107.21
107.22
107.21
107.16
107.15
107.1
107.14
107.05
107.01
107.04
107.07
107.05
107.01
107.04
107.01
106.98
107.01
106.99
107.01
106.99
107
106.99
106.94
106.93
106.88
106.92
106.83
106.85
106.83
106.85
106.84
106.79
106.77
106.79
106.72
106.72
106.72
106.66
106.66
106.66
106.72
106.61
106.65
106.61
106.58
106.61
106.59
106.55
106.52
106.49
106.52
106.49
106.46
106.43
106.4
106.43
106.4
106.37
106.4
106.37
106.33
106.31
106.33
106.37
106.33
106.37
106.34
106.36
106.34
106.36
106.35
106.3
106.28
106.35
106.35
106.29
106.34
106.3
106.28
106.24
106.28
106.25
106.21
106.19
106.15
106.18
106.16
106.12
106.1
106.12
106.1
106.06
106.04
106.11
106.05
105.99
106.04
106
106.04
106
106.03
106.01
106.03
105.95
105.96
105.96
105.9
105.95
105.9
105.95
105.91
105.88
105.85
105.88
105.91
105.88
105.85
105.94
105.86
105.87
105.92
105.87
105.86
105.81
105.85
105.88
105.86
105.82
105.79
105.81
105.85
105.82
105.85
105.88
105.91
105.83
105.84
105.89
105.85
105.83
105.79
105.82
105.79
105.82
105.74
105.8
105.81
105.75
105.74
105.74
105.69
105.73
105.75
105.79
105.71
105.72
105.82
105.73
105.82
105.74
105.75
105.74
105.69
105.67
105.81
105.75
105.8
105.81
105.74
105.8
105.81
105.75
105.8
105.81
105.8
105.75
105.79
105.82
105.79
105.76
105.79
105.88
105.8
105.81
105.86
105.87
105.86
105.82
105.79
105.87
105.8
105.81
105.8
105.86
105.87
105.81
105.8
105.75
105.85
105.76
105.78
105.83
105.78
105.77
105.72
105.76
105.78
105.77
105.78
105.83
105.78
105.77
105.78
105.88
105.85
105.82
105.9
105.89
105.84
105.89
105.9
105.95
105.91
105.94
105.97
106
106.03
105.95
105.96
106.01
106.02
106.01
106.02
106.07
105.97
106
106.03
106.06
106.04
106
106.03
106.06
106.04
106
106.03
106.06
106.04
106.05
106.1
106.06
106.04
106.05
106.1
106.12
106.16
106.12
106.15
106.18
106.16
106.18
106.22
106.24
106.22
106.29
106.23
106.28
106.36
106.29
106.35
106.35
106.41
106.36
106.4
106.42
106.41
106.42
106.47
106.48
106.53
106.49
106.52
106.55
106.52
106.55
106.58
106.61
106.59
106.6
106.65
106.67
106.65
106.67
106.71
106.73
106.65
106.72
106.72
106.72
106.78
106.78
106.78
106.78
106.78
106.78
106.84
106.85
106.84
106.84
106.84
106.84
106.84
106.84
106.9
106.91
106.96
106.92
107.01
106.99
107
106.99
106.94
106.99
107
106.99
107
107.11
107.07
107.05
107.06
107.11
107.07
107.11
107.07
107.16
107.14
107.1
107.08
107.16
107.15
107.1
107.14
107.16
107.14
107.1
107.02
107.03
107.02
106.97
106.96
106.97
106.91
106.84
106.84
106.9
106.91
106.84
106.84
106.9
106.97
106.85
106.89
106.86
106.83
106.85
106.89
106.92
106.89
106.91
106.95
106.98
106.96
106.92
106.95
106.98
106.9
106.97
107.02
107.03
107.02
107.03
107.03
107.09
107.09
107.09
107.09
107.14
107.16
107.14
107.16
107.2
107.23
107.2
107.22
107.2
107.22
107.2
107.28
107.27
107.22
107.26
107.29
107.32
107.35
107.33
107.35
107.33
107.35
107.39
107.41
107.39
107.41
107.45
107.53
107.46
107.58
107.54
107.57
107.6
107.63
107.67
107.63
107.67
107.69
107.73
107.7
107.79
107.76
107.79
107.77
107.84
107.83
107.84
107.83
107.84
107.83
107.84
107.83
107.9
107.84
107.83
107.84
107.89
107.91
107.83
107.84
107.89
107.85
107.89
107.91
107.89
107.91
107.89
107.91
107.89
107.91
107.89
107.97
107.96
107.96
107.96
107.96
107.96
107.96
107.96
107.96
108.02
107.97
107.96
108.03
108.02
108.03
108.03
108.03
108.03
108.09
108.03
108.02
108.09
108.15
108.1
108.14
108.17
108.2
108.11
108.18
108.19
108.18
108.19
108.18
108.25
108.12
108.24
108.2
108.23
108.26
108.24
108.26
108.3
108.2
108.29
108.27
108.34
108.34
108.28
108.34
108.35
108.4
108.35
108.33
108.41
108.34
108.4
108.41
108.46
108.42
108.39
108.48
108.46
108.42
108.45
108.49
108.51
108.55
108.51
108.55
108.51
108.55
108.52
108.55
108.58
108.61
108.58
108.61
108.58
108.67
108.65
108.61
108.59
108.66
108.6
108.66
108.61
108.65
108.61
108.64
108.68
108.64
108.68
108.58
108.73
108.66
108.66
108.6
108.65
108.73
108.66
108.66
108.72
108.67
108.71
108.67
108.71
108.68
108.7
108.75
108.7
108.74
108.71
108.8
108.72
108.73
108.72
108.73
108.72
108.72
108.78
108.73
108.72
108.79
108.79
108.73
108.72
108.79
108.79
108.78
108.79
108.78
108.79
108.78
108.79
108.84
108.86
108.84
108.86
108.84
108.86
108.84
108.86
108.84
108.86
108.79
108.85
108.79
108.9
108.93
108.84
108.86
108.9
108.87
108.84
108.8
108.83
108.87
108.84
108.93
108.85
108.86
108.85
108.85
108.91
108.92
108.91
108.92
108.91
108.92
108.97
108.93
108.97
108.93
108.9
108.99
108.97
108.99
108.97
108.99
109.03
108.93
108.96
109
109.02
109
109.02
109.07
108.96
109
108.97
109.05
109.04
108.99
109.03
109.06
109.03
109.05
109.04
109.05
109.1
109.06
109.09
109.12
109.16
109.13
109.09
109.18
109.16
109.12
109.16
109.19
109.16
109.18
109.22
109.19
109.28
109.26
109.28
109.32
109.34
109.33
109.34
109.33
109.46
109.53
109.46
109.58
109.54
109.58
109.54
109.57
109.55
109.57
109.55
109.63
109.57
109.55
109.57
109.55
109.63
109.56
109.62
109.63
109.62
109.62
109.69
109.69
109.69
109.63
109.68
109.76
109.69
109.69
109.69
109.69
109.76
109.69
109.75
109.76
109.81
109.77
109.74
109.77
109.81
109.77
109.74
109.83
109.81
109.83
109.81
109.82
109.88
109.83
109.81
109.89
109.88
109.83
109.87
109.83
109.87
109.84
109.8
109.9
109.87
109.83
109.81
109.89
109.88
109.83
109.87
109.96
109.94
109.89
109.88
109.95
109.95
109.95
109.95
109.95
110.01
109.96
109.94
109.96
110.01
109.96
110
110.09
110.01
110.02
110.07
110.09
110.07
110.03
110.07
110.09
110.07
110.09
110.13
110.16
110.14
110.1
110.07
110.09
110.13
110.16
110.14
110.22
110.21
110.15
110.2
110.22
110.2
110.22
110.27
110.35
110.34
110.35
110.34
110.35
110.4
110.41
110.41
110.41
110.47
110.48
110.47
110.48
110.53
110.55
110.54
110.55
110.6
110.61
110.6
110.61
110.6
110.61
110.67
110.68
110.73
110.69
110.72
110.75
110.73
110.69
110.72
110.82
110.73
110.81
110.87
110.88
110.93
110.94
111
111.08
111.07
111.07
111.07
111.13
111.08
111.06
111.14
111.13
111.2
111.14
111.2
111.27
111.21
111.2
111.27
111.27
111.33
111.28
111.33
111.35
111.27
111.34
111.34
111.34
111.34
111.34
111.34
111.34
111.34
111.34
111.4
111.28
111.32
111.35
111.33
111.35
111.33
111.29
111.32
111.29
111.25
111.23
111.25
111.29
111.25
111.23
111.25
111.3
111.25
111.23
111.25
111.36
111.26
111.22
111.25
111.29
111.26
111.28
111.26
111.34
111.4
111.35
111.39
111.42
111.33
111.41
111.41
111.4
111.41
111.4
111.47
111.41
111.46
111.42
111.46
111.49
111.4
111.47
111.47
111.53
111.55
111.47
111.54
111.54
111.48
111.53
111.61
111.54
111.6
111.61
111.6
111.61
111.61
111.61
111.61
111.67
111.74
111.68
111.67
111.68
111.73
111.75
111.74
111.75
111.8
111.82
111.8
111.88
111.81
111.87
111.95
111.94
111.95
111.94
111.95
112
112.02
112
112.02
112.07
112.09
112.07
112.09
112.07
112.09
112.07
112.09
112.07
112.15
112.08
112.08
112.08
112.14
112.09
112.13
112.1
112.12
112.04
112.04
112.18
112.06
112.1
112.13
112.17
112.07
112.09
112.13
112.16
112.13
112.16
112.14
112.16
112.2
112.16
112.2
112.23
112.26
112.18
112.18
112.24
112.25
112.31
112.26
112.31
112.26
112.3
112.27
112.3
112.21
112.16
112.2
112.23
112.21
112.16
112.2
112.23
112.21
112.22
112.21
112.22
112.21
112.22
112.21
112.22
112.28
112.22
112.27
112.29
112.34
112.23
112.26
112.3
112.27
112.3
112.27
112.36
112.28
112.28
112.35
112.35
112.35
112.29
112.35
112.36
112.22
112.27
112.29
112.21
112.29
112.22
112.28
112.23
112.21
112.22
112.21
112.22
112.21
112.22
112.21
112.28
112.22
112.21
112.22
112.27
112.3
112.27
112.23
112.26
112.37
112.34
112.36
112.4
112.37
112.27
112.3
112.27
112.36
112.28
112.28
112.22
112.27
112.17
112.19
112.24
112.2
112.17
112.19
112.24
112.13
112.17
112.19
112.17
112.19
112.18
112.12
112.17
112.19
112.18
112.12
112.17
112.12
112.17
112.06
112.16
112.14
112.15
112.08
112.21
112.1
112.13
112.23
112.2
112.23
112.2
112.23
112.2
112.23
112.2
112.23
112.2
112.23
112.21
112.22
112.27
112.3
112.21
112.29
112.28
112.35
112.29
112.28
112.29
112.28
112.29
112.28
112.29
112.34
112.3
112.27
112.3
112.34
112.3
112.27
112.36
112.28
112.35
112.42
112.36
112.41
112.37
112.4
112.44
112.4
112.43
112.41
112.43
112.41
112.43
112.41
112.43
112.41
112.43
112.48
112.43
112.47
112.44
112.47
112.51
112.47
112.5
112.54
112.57
112.54
112.57
112.55
112.57
112.55
112.56
112.62
112.63
112.55
112.62
112.63
112.62
112.63
112.62
112.63
112.62
112.63
112.62
112.7
112.69
112.7
112.69
112.7
112.63
112.69
112.63
112.68
112.71
112.68
112.64
112.74
112.78
112.68
112.77
112.76
112.77
112.82
112.77
112.82
112.85
112.82
112.84
112.82
112.84
112.89
112.85
112.82
112.84
112.88
112.85
112.88
112.92
112.88
112.85
112.81
112.91
112.89
112.84
112.88
112.91
112.82
112.84
112.83
112.84
112.83
112.77
112.82
112.84
112.89
112.85
112.82
112.84
112.82
112.78
112.81
112.78
112.81
112.79
112.74
112.72
112.67
112.71
112.68
112.71
112.68
112.64
112.61
112.64
112.55
112.56
112.62
112.63
112.56
112.49
112.49
112.55
112.43
112.41
112.43
112.41
112.43
112.41
112.37
112.4
112.44
112.34
112.43
112.35
112.36
112.35
112.29
112.28
112.29
112.21
112.16
112.2
112.23
112.14
112.22
112.15
112.14
112.15
112.14
112.09
112.07
112.09
112.01
112.08
112.08
112.02
112.01
112.02
111.95
111.94
111.95
112.01
112.02
112.01
112.02
112.01
112.08
112.08
111.95
111.94
111.95
112
111.96
112
112.03
112
112.02
112
111.96
112.06
112.1
112.06
112.1
112.07
112.09
112.13
112.16
112.14
112.1
112.13
112.1
112.19
112.18
112.12
112.24
112.2
112.17
112.19
112.17
112.19
112.18
112.19
112.31
112.2
112.23
112.21
112.22
112.27
112.23
112.27
112.3
112.27
112.29
112.28
112.35
112.35
112.29
112.35
112.36
112.35
112.29
112.34
112.36
112.35
112.29
112.34
112.36
112.41
112.37
112.34
112.36
112.34
112.3
112.34
112.37
112.34
112.3
112.27
112.29
112.34
112.24
112.2
112.23
112.2
112.23
112.21
112.16
112.2
112.23
112.2
112.16
112.2
112.23
112.27
112.17
112.19
112.24
112.19
112.3
112.27
112.23
112.2
112.29
112.28
112.22
112.27
112.29
112.28
112.23
112.27
112.3
112.27
112.23
112.27
112.3
112.33
112.3
112.33
112.37
112.33
112.3
112.39
112.38
112.33
112.38
112.39
112.44
112.46
112.38
112.39
112.45
112.46
112.45
112.39
112.51
112.47
112.5
112.48
112.5
112.48
112.49
112.48
112.49
112.55
112.5
112.54
112.57
112.61
112.57
112.61
112.64
112.68
112.65
112.61
112.7
112.69
112.64
112.68
112.71
112.75
112.71
112.74
112.84
112.76
112.77
112.82
112.77
112.82
112.84
112.82
112.9
112.9
112.9
112.9
112.9
112.97
112.91
112.96
112.98
112.96
112.97
112.96
113.04
113.04
112.97
113.03
113.11
113.11
113.04
113.1
113.11
113.1
113.11
113.17
113.18
113.23
113.19
113.16
113.25
113.3
113.26
113.3
113.33
113.36
113.34
113.36
113.34
113.35
113.35
113.35
113.41
113.36
113.41
113.36
113.47
113.44
113.4
113.43
113.47
113.44
113.47
113.51
113.54
113.58
113.48
113.5
113.55
113.57
113.55
113.56
113.62
113.57
113.55
113.57
113.68
113.65
113.68
113.71
113.68
113.71
113.69
113.71
113.82
113.72
113.74
113.73
113.74
113.79
113.81
113.8
113.8
113.8
113.8
113.87
113.81
113.86
113.88
113.87
113.88
113.87
113.87
113.94
113.88
113.93
113.89
113.92
113.96
113.93
113.89
113.92
113.96
113.99
113.96
113.92
113.89
113.92
113.9
113.85
113.96
113.93
113.89
113.86
113.88
113.93
113.89
113.86
113.95
113.94
113.88
113.93
113.95
113.93
113.88
113.86
113.95
113.94
113.88
113.87
113.94
113.94
113.87
113.94
113.95
113.94
113.94
114.01
113.95
114
113.96
113.93
114.02
114
114.02
114.01
113.95
114.06
114.03
113.99
114.03
114.06
114.03
114.06
114.04
114.12
114.12
114.05
114.05
114.11
114.12
114.04
114.18
114.19
114.12
114.11
114.19
114.12
114.18
114.13
114.11
114.13
114.18
114.13
114.17
114.14
114.17
114.14
114.23
114.16
114.15
114.16
114.15
114.29
114.16
114.21
114.23
114.21
114.16
114.21
114.17
114.2
114.24
114.21
114.24
114.15
114.22
114.22
114.22
114.29
114.23
114.29
114.23
114.21
114.3
114.29
114.29
114.29
114.29
114.36
114.37
114.3
114.29
114.36
114.3
114.36
114.31
114.35
114.38
114.29
114.37
114.36
114.36
114.43
114.37
114.42
114.45
114.43
114.44
114.43
114.44
114.36
114.43
114.44
114.43
114.51
114.44
114.5
114.51
114.5
114.45
114.49
114.52
114.49
114.52
114.56
114.52
114.55
114.53
114.48
114.59
114.63
114.6
114.56
114.6
114.63
114.6
114.55
114.66
114.57
114.65
114.65
114.65
114.65
114.65
114.65
114.65
114.65
114.65
114.65
114.64
114.72
114.65
114.64
114.72
114.65
114.64
114.65
114.64
114.72
114.65
114.64
114.72
114.72
114.65
114.71
114.72
114.78
114.67
114.7
114.74
114.7
114.74
114.7
114.73
114.71
114.73
114.77
114.74
114.7
114.67
114.7
114.74
114.77
114.74
114.69
114.81
114.78
114.74
114.77
114.81
114.77
114.74
114.77
114.81
114.77
114.74
114.77
114.81
114.77
114.74
114.77
114.81
114.77
114.8
114.84
114.88
114.78
114.8
114.85
114.87
114.79
114.79
114.86
114.86
114.86
114.79
114.85
114.87
114.86
114.8
114.85
114.94
114.93
114.87
114.92
114.94
114.92
114.87
114.92
114.94
114.99
114.95
114.98
114.96
114.98
114.96
114.91
115.02
114.99
114.95
114.98
114.96
114.98
115.03
114.92
115.01
115
115.01
115
115.01
115
115
115.07
115.08
115.07
115.07
115.08
115.14
115.09
115.06
115.09
115.13
115.16
115.13
115.16
115.13
115.23
115.08
115.14
115.15
115.14
115.15
115.14
115.15
115.14
115.15
115.14
115.15
115.21
115.16
115.2
115.23
115.14
115.22
115.22
115.22
115.28
115.23
115.27
115.3
115.21
115.23
115.28
115.3
115.28
115.3
115.35
115.37
115.42
115.45
115.42
115.51
115.5
115.51
115.57
115.59
115.57
115.59
115.64
115.66
115.57
115.65
115.65
115.65
115.72
115.72
115.72
115.79
115.73
115.78
115.81
115.78
115.81
115.78
115.8
115.78
115.8
115.79
115.87
115.86
115.8
115.86
115.88
115.86
115.94
115.87
115.93
115.95
115.93
115.94
115.93
115.94
115.87
115.93
116.01
115.94
115.93
115.94
115.87
115.93
115.94
115.93
116.01
115.95
115.93
115.94
115.93
115.88
115.93
115.82
115.77
115.81
115.64
115.59
115.57
115.52
115.42
115.37
115.35
115.37
115.22
115.22
115.22
115.15
115.14
115.08
115.07
115.08
115.07
115.01
115
115.01
115
115.01
115
114.94
114.99
114.95
114.98
115.02
114.99
114.95
114.98
115.02
115.05
115.03
115.05
115.1
115.05
115.1
115.12
115.17
115.13
115.16
115.2
115.17
115.19
115.24
115.2
115.3
115.21
115.22
115.22
115.28
115.3
115.22
115.22
115.28
115.3
115.35
115.31
115.34
115.32
115.33
115.39
115.33
115.39
115.4
115.46
115.41
115.46
115.48
115.53
115.48
115.53
115.55
115.67
115.57
115.59
115.7
115.74
115.71
115.8
115.72
115.72
115.72
115.72
115.79
115.73
115.78
115.87
115.79
115.79
115.8
115.72
115.86
115.81
115.78
115.81
115.85
115.88
115.79
115.87
115.8
115.79
115.87
115.86
115.87
115.8
115.86
115.8
115.92
115.89
115.85
115.88
115.92
115.82
115.84
115.89
115.84
115.82
115.84
115.89
115.85
115.89
115.85
115.88
115.86
115.88
115.86
115.94
115.87
115.86
115.87
115.93
115.95
115.93
116.02
116
116.02
115.87
115.93
115.94
116
115.95
115.93
115.95
116
115.96
115.92
115.88
115.92
115.96
115.92
115.95
115.99
115.96
115.92
116.02
116
115.95
115.99
115.96
115.99
115.97
115.98
116.04
116.06
116.04
116.05
116.11
116.06
116.04
115.99
116.03
116.06
116.04
116.06
116.04
116.05
116.05
116.05
116.12
116.06
116.11
116.06
116.1
116.14
116.11
116.06
116.17
116.15
116.1
116.14
116.17
116.15
116.1
116.21
116.18
116.14
116.18
116.14
116.17
116.21
116.18
116.21
116.18
116.21
116.25
116.21
116.31
116.29
116.24
116.22
116.31
116.3
116.23
116.23
116.23
116.3
116.24
116.29
116.31
116.3
116.24
116.22
116.24
116.22
116.23
116.16
116.22
116.24
116.15
116.23
116.16
116.22
116.17
116.15
116.1
116.14
116.11
116.07
116.1
116.07
115.96
115.92
115.96
115.92
115.82
115.7
115.74
115.71
115.6
115.49
115.45
115.22
115.15
115.01
115
114.94
114.92
114.88
114.84
114.88
114.78
114.8
114.71
114.79
114.72
114.71
114.72
114.78
114.67
114.63
114.66
114.63
114.59
114.56
114.66
114.57
114.58
114.57
114.58
114.57
114.51
114.57
114.59
114.57
114.52
114.56
114.59
114.56
114.52
114.56
114.6
114.56
114.59
114.56
114.59
114.63
114.6
114.56
114.66
114.64
114.59
114.63
114.66
114.63
114.66
114.7
114.73
114.71
114.73
114.71
114.79
114.85
114.8
114.85
114.87
114.85
114.8
114.84
114.88
114.91
114.88
114.91
114.95
114.91
114.88
114.91
114.95
114.91
114.95
114.92
114.94
114.99
114.95
114.92
114.95
114.99
114.95
114.92
114.95
114.99
114.95
114.92
115.01
114.93
114.93
115
115.01
115
115
115
115
115.07
115.01
115
115.07
115.14
115.01
115.06
115.02
115.05
115.09
115.06
115.16
115.14
115.09
115.13
115.16
115.14
115.16
115.14
115.15
115.14
115.15
115.14
115.21
115.22
115.15
115.15
115.21
115.16
115.13
115.22
115.08
115.07
115.08
115.07
115.08
115.07
115.01
115
114.87
114.98
114.89
114.9
114.96
114.9
114.89
114.83
114.89
114.9
114.82
114.82
114.89
114.9
114.9
114.83
114.89
114.83
114.89
114.84
114.88
114.84
114.88
114.85
114.87
114.85
114.87
114.86
114.93
114.87
114.79
114.86
114.86
114.79
114.78
114.8
114.85
114.87
114.78
114.8
114.85
114.87
114.78
114.8
114.78
114.86
114.73
114.78
114.8
114.71
114.72
114.72
114.72
114.72
114.65
114.71
114.66
114.7
114.67
114.69
114.67
114.62
114.6
114.62
114.67
114.56
114.66
114.64
114.66
114.57
114.64
114.58
114.57
114.65
114.51
114.57
114.59
114.5
114.51
114.57
114.52
114.5
114.45
114.42
114.45
114.43
114.38
114.29
114.3
114.29
114.3
114.29
114.3
114.16
114.14
114.23
114.15
114.15
114.09
114.14
114.1
114.07
114.03
114
114.03
114
113.96
113.93
113.89
113.86
113.89
113.79
113.74
113.72
113.68
113.71
113.68
113.64
113.55
113.56
113.55
113.56
113.49
113.42
113.42
113.35
113.35
113.28
113.34
113.29
113.27
113.29
113.28
113.28
113.28
113.22
113.27
113.29
113.21
113.21
113.28
113.15
113.19
113.16
113.25
113.18
113.18
113.18
113.17
113.12
113.1
113.18
113.17
113.12
113.09
113.12
113.16
113.13
113.08
113.19
113.16
113.13
113.09
113.13
113.09
113.12
113.09
113.12
113.09
113.19
113.1
113.11
113.1
113.11
113.04
113.1
113.11
113.1
112.98
113.02
113.05
112.96
112.98
112.96
113.04
112.97
112.9
112.9
112.9
112.83
112.83
112.9
112.84
112.89
112.85
112.82
112.85
112.88
112.85
112.81
112.85
112.81
112.78
112.81
112.85
112.81
112.85
112.81
112.85
112.88
112.85
112.81
112.85
112.81
112.85
112.82
112.91
112.89
112.91
112.9
112.9
112.9
112.9
112.9
112.9
112.96
112.91
112.96
112.98
112.9
112.97
112.97
112.97
112.91
112.96
113.04
113.03
113.11
113.04
113.1
113.11
113.17
113.12
113.16
113.19
113.23
113.26
113.23
113.26
113.3
113.33
113.3
113.26
113.3
113.4
113.44
113.47
113.44
113.53
113.52
113.53
113.52
113.59
113.6
113.59
113.66
113.73
113.74
113.73
113.74
113.73
113.74
113.73
113.74
113.73
113.8
113.8
113.8
113.73
113.73
113.8
113.81
113.73
113.8
113.74
113.79
113.75
113.78
113.76
113.71
113.75
113.71
113.75
113.72
113.75
113.72
113.74
113.72
113.74
113.72
113.74
113.73
113.74
113.79
113.81
113.73
113.73
113.8
113.81
113.8
113.74
113.79
113.81
113.79
113.74
113.79
113.82
113.79
113.81
113.79
113.81
113.79
113.74
113.72
113.74
113.72
113.67
113.72
113.68
113.58
113.47
113.37
113.33
113.3
113.2
113.16
113.19
113.22
113.2
113.16
113.19
113.16
113.19
113.1
113.18
113.11
113.1
113.11
113.1
113.11
113.04
113.1
113.11
113.11
113.11
113.11
113.11
113.11
113.1
113.11
