93.058
93.036
93.054
93.04
93.007
93.036
93.01
93.033
93.056
93.081
93.059
93.035
93.055
93.082
93.102
93.085
93.098
93.175
93.108
93.166
93.204
93.127
93.194
93.224
93.241
93.271
93.245
93.267
93.291
93.314
93.338
93.318
93.335
93.321
93.376
93.417
93.468
93.469
93.423
93.464
93.515
93.56
93.521
93.556
93.613
93.652
93.618
93.692
93.672
93.688
93.72
93.736
93.811
93.79
93.809
93.836
93.901
93.89
93.855
93.885
93.904
93.976
93.959
93.973
94.051
94.071
94.099
94.074
94.14
94.172
94.189
94.219
94.283
94.318
94.287
94.313
94.381
94.412
94.385
94.408
94.479
94.507
94.483
94.503
94.531
94.551
94.58
94.644
94.635
94.687
94.734
94.736
94.826
94.793
94.822
94.887
94.877
94.93
94.976
94.98
95.069
95.082
95.071
95.08
95.118
95.176
95.218
95.226
95.265
95.323
95.319
95.321
95.412
95.379
95.453
95.482
95.502
95.532
95.551
95.581
95.6
95.631
95.649
95.68
95.744
95.737
95.741
95.785
95.838
95.795
95.829
95.895
95.927
95.949
95.927
95.995
96.026
96.049
96.027
96.094
96.127
96.148
96.127
96.194
96.227
96.293
96.235
96.286
96.334
96.34
96.334
96.387
96.435
96.44
96.435
96.487
96.489
96.534
96.542
96.581
96.595
96.629
96.648
96.677
96.7
96.726
96.753
96.775
96.805
96.824
96.857
96.874
96.908
96.971
96.967
96.967
97.112
97.08
97.109
97.082
97.154
97.139
97.152
97.14
97.198
97.244
97.252
97.292
97.305
97.294
97.303
97.295
97.35
97.446
97.411
97.441
97.463
97.443
97.461
97.493
97.514
97.543
97.566
97.593
97.667
97.699
97.672
97.646
97.717
97.704
97.715
97.754
97.768
97.804
97.821
97.854
97.874
97.857
97.871
97.907
97.972
97.965
97.971
98.015
98.073
98.024
98.016
98.073
98.071
98.122
98.125
98.123
98.172
98.131
98.116
98.18
98.22
98.284
98.179
98.27
98.289
98.224
98.28
98.329
98.335
98.33
98.285
98.324
98.388
98.382
98.387
98.431
98.442
98.481
98.496
98.532
98.55
98.534
98.548
98.535
98.596
98.544
98.588
98.6
98.637
98.705
98.645
98.697
98.701
98.698
98.7
98.747
98.756
98.797
98.762
98.791
98.817
98.842
98.822
98.838
98.875
98.841
98.872
98.893
98.975
98.903
98.916
98.904
98.915
99.004
98.928
98.943
98.981
98.947
99.027
99.006
99.024
99.058
99.029
99.053
99.132
99.113
99.129
99.115
99.177
99.223
99.182
99.218
99.237
99.221
99.234
99.272
99.289
99.275
99.287
99.326
99.341
99.329
99.339
99.331
99.387
99.439
99.393
99.384
99.441
99.442
99.44
99.443
99.489
99.551
99.495
99.494
99.494
99.545
99.551
99.546
99.6
99.604
99.599
99.654
99.656
99.655
99.655
99.706
99.712
99.707
99.711
99.757
99.767
99.759
99.766
99.76
99.815
99.818
99.815
99.868
99.822
99.862
99.878
99.913
99.884
99.908
99.939
99.961
99.943
99.956
99.998
99.96
99.994
100.01
100.05
100.02
100.1
100.08
100.04
100.07
100.05
100.12
100.11
100.12
100.11
100.11
100.17
100.17
100.22
100.12
100.21
100.24
100.26
100.24
100.26
100.29
100.31
100.3
100.31
100.3
100.36
100.41
100.36
100.35
100.41
100.41
100.41
100.47
100.47
100.47
100.46
100.52
100.52
100.52
100.52
100.57
100.58
100.57
100.58
100.63
100.63
100.63
100.63
100.68
100.69
100.68
100.69
100.63
100.73
100.75
100.68
100.74
100.74
100.74
100.74
100.79
100.74
100.84
100.81
100.78
100.86
100.79
100.85
100.85
100.9
100.91
100.9
100.91
100.95
100.97
100.95
100.97
101
100.97
100.95
101.02
101.01
101.07
101.02
101.06
101.07
101.06
101.07
101.12
101.08
101.11
101.14
101.11
101.14
101.11
101.14
101.17
101.19
101.17
101.19
101.17
101.19
101.17
101.19
101.17
101.24
101.23
101.19
101.23
101.24
101.28
101.25
101.27
101.31
101.28
101.3
101.28
101.35
101.34
101.3
101.33
101.36
101.39
101.36
101.33
101.41
101.34
101.35
101.4
101.41
101.4
101.4
101.4
101.45
101.41
101.45
101.42
101.44
101.42
101.43
101.48
101.44
101.53
101.5
101.47
101.49
101.53
101.49
101.48
101.49
101.59
101.55
101.53
101.55
101.64
101.56
101.63
101.57
101.62
101.63
101.57
101.62
101.57
101.67
101.64
101.61
101.69
101.67
101.63
101.67
101.64
101.66
101.7
101.72
101.7
101.71
101.7
101.71
101.76
101.72
101.75
101.72
101.8
101.73
101.74
101.79
101.8
101.79
101.79
101.84
101.9
101.91
101.85
101.9
101.96
101.96
101.9
101.96
101.96
101.96
101.96
102.01
102.02
102.07
102.02
102.06
102.08
102.12
102.09
102.06
102.08
102.17
102.2
102.17
102.2
102.17
102.19
102.18
102.19
102.23
102.25
102.24
102.25
102.29
102.25
102.28
102.36
102.35
102.31
102.34
102.42
102.41
102.36
102.4
102.47
102.52
102.48
102.46
102.53
102.57
102.53
102.52
102.53
102.57
102.59
102.57
102.59
102.68
102.65
102.68
102.71
102.73
102.72
102.73
102.77
102.73
102.82
102.8
102.82
102.85
102.82
102.85
102.88
102.91
102.89
102.9
102.94
102.96
102.95
102.96
102.95
103.01
103.01
103.06
103.07
103.06
103.13
103.06
103.18
103.19
103.18
103.18
103.23
103.24
103.29
103.25
103.34
103.37
103.34
103.37
103.4
103.42
103.4
103.42
103.46
103.48
103.51
103.49
103.56
103.55
103.56
103.61
103.62
103.67
103.62
103.66
103.63
103.71
103.69
103.71
103.75
103.71
103.74
103.77
103.86
103.84
103.8
103.83
103.86
103.95
103.92
103.89
103.92
104
103.98
104
104.04
104.06
104.04
104.06
104.16
104.12
104.1
104.12
104.15
104.18
104.21
104.18
104.21
104.24
104.27
104.3
104.33
104.36
104.33
104.36
104.39
104.42
104.39
104.41
104.45
104.47
104.45
104.47
104.51
104.53
104.51
104.53
104.63
104.59
104.57
104.59
104.63
104.65
104.63
104.65
104.74
104.71
104.74
104.77
104.74
104.83
104.81
104.82
104.87
104.88
104.87
104.88
104.93
105
104.99
104.99
105.05
105
105.04
105.06
105.1
105.12
105.11
105.12
105.22
105.19
105.16
105.19
105.27
105.25
105.21
105.25
105.27
105.31
105.28
105.36
105.4
105.42
105.4
105.36
105.45
105.49
105.46
105.49
105.46
105.48
105.52
105.49
105.63
105.62
105.57
105.61
105.57
105.67
105.64
105.72
105.77
105.72
105.76
105.73
105.7
105.78
105.77
105.78
105.88
105.79
105.81
105.85
105.88
105.91
105.88
105.91
106
105.98
105.94
105.97
106
106.03
106
106.03
106.12
106.1
106.06
106.09
106.12
106.15
106.18
106.21
106.19
106.21
106.19
106.21
106.25
106.27
106.25
106.32
106.32
106.32
106.32
106.32
106.44
106.45
106.44
106.39
106.43
106.51
106.5
106.51
106.56
106.51
106.55
106.58
106.61
106.58
106.61
106.64
106.73
106.71
106.67
106.71
106.79
106.78
106.72
106.77
106.79
106.83
106.79
106.83
106.85
106.89
106.86
106.89
106.98
106.96
106.92
106.95
107.04
107.02
106.97
107.02
107.09
107.09
107.09
107.15
107.1
107.14
107.16
107.2
107.22
107.15
107.16
107.21
107.22
107.21
107.16
107.2
107.28
107.33
107.34
107.33
107.46
107.52
107.52
107.64
107.71
107.89
108.03
108.32
108.48
108.58
108.68
108.77
108.81
108.89
108.94
108.95
109.06
109.09
109.13
109.15
109.31
109.29
109.31
109.36
109.38
109.42
109.44
109.48
109.51
109.48
109.56
109.56
109.62
109.63
109.62
109.69
109.75
109.76
109.75
109.76
109.81
109.77
109.8
109.9
109.93
109.97
109.94
110.03
110.01
110.09
110.08
110.15
110.15
110.21
110.22
110.21
110.28
110.34
110.29
110.33
110.42
110.46
110.42
110.46
110.49
110.52
110.5
110.58
110.64
110.58
110.63
110.65
110.7
110.71
110.76
110.72
110.82
110.85
110.83
110.85
110.89
110.91
110.9
110.97
111.03
110.98
110.97
111.04
111.1
111.04
111.1
111.11
111.16
111.12
111.16
111.19
111.22
111.19
111.28
111.27
111.34
111.34
111.27
111.33
111.4
111.35
111.39
111.42
111.45
111.49
111.45
111.55
111.53
111.55
111.53
111.61
111.6
111.62
111.54
111.61
111.61
111.67
111.62
111.66
111.68
111.73
111.75
111.67
111.74
111.8
111.81
111.87
111.88
111.81
111.81
111.93
111.89
111.93
111.9
111.92
112.03
112
111.96
112.05
112.04
112.05
112.04
111.98
112.1
112.06
112.03
112.06
112.1
112.06
112.03
111.99
112.03
112.06
112.04
111.99
112.03
112
112.03
112
112.09
112.01
112.07
112.09
112.07
112.15
112.08
112.08
112.08
112.08
112.08
112.08
112.08
112.08
112.08
112.15
112.08
112.14
112.16
112.14
112.15
112.08
112.14
112.22
112.15
112.21
112.16
112.2
112.23
112.27
112.24
112.26
112.3
112.33
112.31
112.26
112.37
112.34
112.37
112.34
112.36
112.41
112.43
112.41
112.43
112.41
112.49
112.49
112.49
112.43
112.48
112.56
112.55
112.56
112.55
112.63
112.56
112.62
112.63
112.62
112.63
112.62
112.63
112.69
112.7
112.69
112.7
112.75
112.71
112.75
112.71
112.74
112.78
112.74
112.78
112.81
112.85
112.82
112.85
112.82
112.84
112.89
112.91
112.89
112.91
112.96
112.92
112.95
112.99
113.02
112.99
113.01
113.06
113.02
113.06
113.09
113.13
113.09
113.12
113.03
113.17
113.12
113.16
113.19
113.16
113.19
113.16
113.25
113.24
113.25
113.24
113.25
113.24
113.25
113.24
113.32
113.31
113.32
113.25
113.31
113.32
113.31
113.32
113.38
113.39
113.38
113.33
113.3
113.39
113.38
113.39
113.38
113.39
113.38
113.39
113.38
113.38
113.45
113.39
113.44
113.47
113.44
113.46
113.44
113.46
113.45
113.46
113.45
113.52
113.52
113.52
113.52
113.52
113.52
113.52
113.52
113.59
113.6
113.59
113.6
113.59
113.6
113.59
113.6
113.59
113.6
113.59
113.66
113.66
113.66
113.66
113.73
113.67
113.72
113.75
113.72
113.81
113.86
113.82
113.85
113.89
113.92
113.96
113.92
114.09
114.14
114.1
114.13
114.23
114.28
114.31
114.28
114.37
114.42
114.44
114.43
114.51
114.57
114.58
114.57
114.58
114.64
114.65
114.64
114.65
114.58
114.71
114.66
114.63
114.73
114.64
114.72
114.72
114.65
114.71
114.73
114.71
114.79
114.78
114.73
114.71
114.73
114.84
114.88
114.84
114.88
114.85
114.81
114.84
114.81
114.9
114.83
114.82
114.9
114.89
114.9
114.89
114.97
114.9
114.96
114.97
115.03
115.04
115.04
115.04
115.11
115.11
115.11
115.11
115.18
115.19
115.18
115.18
115.25
115.26
115.25
115.19
115.31
115.27
115.3
115.28
115.3
115.29
115.29
115.29
115.29
115.29
115.28
115.3
115.28
115.37
115.29
115.36
115.3
115.35
115.37
115.36
115.36
115.29
115.28
115.36
115.36
115.37
115.36
115.43
115.43
115.44
115.43
115.5
115.51
115.57
115.51
115.57
115.59
115.64
115.66
115.64
115.66
115.71
115.67
115.64
115.66
115.71
115.74
115.71
115.73
115.71
115.66
115.71
115.74
115.71
115.6
115.63
115.67
115.63
115.6
115.62
115.61
115.69
115.69
115.62
115.68
115.69
115.75
115.76
115.89
115.78
115.88
115.86
115.94
116.01
115.95
116.07
116.1
116.07
116.1
116.14
116.1
116.14
116.18
116.28
116.26
116.27
116.26
116.27
116.33
116.28
116.33
116.28
116.32
116.29
116.32
116.29
116.38
116.37
116.38
116.44
116.45
116.52
116.46
116.51
116.6
116.66
116.61
116.65
116.68
116.66
116.61
116.65
116.69
116.72
116.62
116.64
116.7
116.65
116.69
116.65
116.68
116.73
116.69
116.72
116.83
116.8
116.76
116.8
116.83
116.8
116.83
116.88
116.9
116.88
116.83
116.81
116.83
116.88
116.83
116.87
116.91
116.88
116.83
116.87
116.91
116.88
116.9
116.95
116.98
116.95
116.9
116.95
117.05
116.96
116.97
116.96
117.03
117.04
116.96
116.97
116.96
117.04
116.97
117.03
117.12
117.11
117.05
117.1
117.12
117.1
117.12
117.11
117.19
117.19
117.12
117.18
117.19
117.11
117.11
117.11
117.18
117.19
117.11
117.18
117.19
117.18
117.12
117.17
117.2
117.25
117.21
117.24
117.21
117.23
117.22
117.23
117.36
117.24
117.28
117.31
117.35
117.32
117.28
117.31
117.36
117.32
117.35
117.32
117.35
117.32
117.34
117.33
117.41
117.41
117.34
117.33
117.41
117.41
117.34
117.33
117.34
117.33
117.27
117.26
117.19
117.25
117.27
117.32
117.35
117.32
117.28
117.32
117.35
117.32
117.35
117.32
117.28
117.32
117.35
117.32
117.35
117.32
117.34
117.33
117.34
117.33
117.34
117.33
117.34
117.27
117.33
117.35
117.26
117.4
117.28
117.32
117.35
117.32
117.28
117.31
117.35
117.25
117.27
117.32
117.28
117.31
117.28
117.24
117.35
117.32
117.28
117.25
117.2
117.24
117.21
117.24
117.28
117.24
117.21
117.24
117.21
117.16
117.14
117.09
117.2
117.1
117.05
117.1
117.13
117.03
116.97
117.03
117.05
116.96
116.9
116.89
116.83
116.88
116.83
116.87
116.84
116.8
116.77
116.72
116.76
116.73
116.69
116.65
116.68
116.59
116.53
116.52
116.53
116.45
116.38
116.37
116.38
116.38
116.24
116.22
116.24
116.23
116.17
116.08
116.09
116.02
115.94
116.01
115.88
115.85
115.88
115.79
115.8
115.79
115.66
115.64
115.59
115.63
115.53
115.48
115.53
115.42
115.38
115.35
115.31
115.21
115.23
115.21
115.16
115.07
115.01
114.99
114.94
114.92
114.81
114.77
114.8
114.71
114.66
114.57
114.58
114.51
114.44
114.43
114.37
114.29
114.23
114.15
114.15
114.15
114.02
114.01
113.95
113.93
113.89
113.86
113.82
113.72
113.67
113.72
113.68
113.58
113.54
113.57
113.54
113.44
113.4
113.43
113.41
113.3
113.33
113.3
113.2
113.16
113.13
113.09
113.12
113.09
113.06
113.02
113.05
113.03
112.98
112.96
112.98
112.96
112.85
112.88
112.85
112.75
112.78
112.75
112.77
112.69
112.63
112.68
112.64
112.61
112.57
112.61
112.64
112.49
112.49
112.55
112.56
112.49
112.42
112.48
112.49
112.42
112.42
112.42
112.42
112.42
112.35
112.42
112.42
112.35
112.35
112.36
112.35
112.23
112.2
112.23
112.27
112.3
112.21
112.23
112.27
112.17
112.19
112.24
112.26
112.25
112.12
112.23
112.2
112.23
112.2
112.23
112.21
112.22
112.21
112.29
112.28
112.22
112.28
112.29
112.28
112.35
112.29
112.34
112.36
112.34
112.36
112.41
112.37
112.4
112.44
112.4
112.5
112.41
112.43
112.47
112.5
112.54
112.51
112.53
112.52
112.59
112.59
112.52
112.65
112.6
112.65
112.6
112.71
112.74
112.78
112.75
112.78
112.75
112.84
112.83
112.9
112.9
112.83
112.89
112.91
112.96
112.91
113.02
112.99
113.01
113.06
113.08
113.13
113.09
113.19
113.23
113.26
113.23
113.25
113.24
113.38
113.39
113.31
113.38
113.45
113.46
113.45
113.46
113.51
113.6
113.52
113.59
113.59
113.59
113.59
113.66
113.66
113.73
113.74
113.79
113.74
113.72
113.81
113.86
113.81
113.86
113.89
113.93
113.96
113.93
114.02
114.01
114.08
114.08
114.08
114.15
114.15
114.22
114.16
114.21
114.3
114.29
114.3
114.29
114.36
114.37
114.36
114.43
114.44
114.5
114.51
114.5
114.57
114.51
114.56
114.65
114.71
114.73
114.71
114.79
114.79
114.86
114.86
114.86
114.93
114.94
114.93
115
115
115.07
115.08
115.07
115.08
115.14
115.16
115.2
115.23
115.21
115.23
115.27
115.3
115.28
115.3
115.34
115.38
115.41
115.45
115.48
115.53
115.49
115.52
115.56
115.6
115.56
115.59
115.63
115.67
115.7
115.74
115.77
115.88
115.79
115.8
115.86
115.88
115.86
115.87
115.93
115.95
116
115.96
115.99
116.03
116.13
116.11
116.06
116.17
116.07
116.16
116.16
116.23
116.24
116.23
116.24
116.22
116.31
116.3
116.37
116.38
116.38
116.38
116.45
116.52
116.53
116.52
116.53
116.59
116.61
116.59
116.67
116.67
116.67
116.66
116.74
116.74
116.74
116.81
116.82
116.81
116.75
116.87
116.98
116.88
116.97
116.96
117.04
117.04
117.04
117.04
117.11
117.19
117.12
117.11
117.18
117.19
117.25
117.2
117.24
117.34
117.33
117.27
117.25
117.41
117.41
117.41
117.34
117.4
117.49
117.48
117.49
117.48
117.49
117.55
117.63
117.56
117.55
117.56
117.55
117.63
117.7
117.64
117.62
117.71
117.78
117.79
117.71
117.78
117.86
117.86
117.79
117.78
117.93
117.87
117.85
117.94
117.93
117.94
117.93
118.01
118.01
118.01
118.01
118.08
118.02
118.07
118.17
118.15
118.17
118.15
118.16
118.15
118.23
118.23
118.23
118.23
118.3
118.32
118.23
118.3
118.38
118.39
118.38
118.39
118.38
118.39
118.38
118.46
118.47
118.53
118.47
118.52
118.55
118.52
118.55
118.52
118.69
118.69
118.62
118.68
118.7
118.75
118.71
118.74
118.78
118.75
118.78
118.75
118.78
118.82
118.79
118.75
118.78
118.82
118.86
118.9
118.94
118.9
118.93
118.9
118.93
118.91
118.93
118.91
118.99
118.99
118.99
119
118.99
119.07
119.07
119.07
119
119.06
119.08
119.06
119.08
119.14
119.08
119.13
119.16
119.13
119.16
119.21
119.17
119.2
119.24
119.21
119.31
119.29
119.24
119.28
119.24
119.35
119.33
119.27
119.4
119.36
119.32
119.35
119.33
119.42
119.41
119.35
119.48
119.43
119.4
119.43
119.55
119.52
119.47
119.51
119.55
119.52
119.54
119.52
119.54
119.6
119.55
119.59
119.62
119.6
119.62
119.67
119.63
119.59
119.62
119.6
119.69
119.68
119.61
119.68
119.77
119.76
119.69
119.75
119.84
119.84
119.77
119.83
119.85
119.91
119.78
119.89
119.87
119.88
119.88
119.88
119.95
119.96
119.96
119.88
120.02
119.97
120.02
119.98
120.08
120.07
120.01
120.06
120.09
120.06
120.08
120.07
120.15
120.15
120.08
120.15
120.16
120.22
120.16
120.21
120.24
120.29
120.25
120.21
120.32
120.3
120.32
120.3
120.31
120.38
120.32
120.37
120.4
120.45
120.41
120.37
120.4
120.44
120.41
120.44
120.56
120.53
120.56
120.53
120.48
120.52
120.56
120.6
120.64
120.68
120.57
120.59
120.65
120.67
120.65
120.66
120.73
120.74
120.74
120.74
120.81
120.82
120.82
120.75
120.88
120.84
120.8
120.83
120.95
120.85
120.86
121
120.95
121
120.96
120.99
120.96
120.91
120.96
120.99
121.04
121
121.03
121
121.02
121.08
121.1
121.09
121.17
121.18
121.1
121.09
121.17
121.25
121.18
121.25
121.26
121.25
121.26
121.25
121.33
121.27
121.32
121.35
121.24
121.41
121.34
121.4
121.42
121.41
121.42
121.48
121.43
121.47
121.43
121.47
121.59
121.56
121.51
121.55
121.52
121.54
121.6
121.62
121.68
121.7
121.61
121.61
121.69
121.77
121.7
121.68
121.85
121.77
121.77
121.77
121.85
121.78
121.84
121.79
121.91
121.8
121.89
121.89
121.89
121.89
121.89
121.9
121.89
122.05
121.98
121.97
122.05
122.05
122.05
122.06
122.05
122.13
122.13
122.13
122.06
122.13
122.14
122.13
122.21
122.22
122.21
122.29
122.22
122.36
122.31
122.28
122.31
122.35
122.32
122.35
122.47
122.51
122.41
122.42
122.49
122.5
122.49
122.5
122.57
122.51
122.56
122.59
122.65
122.59
122.56
122.59
122.72
122.68
122.71
122.69
122.79
122.78
122.71
122.69
122.78
122.78
122.7
122.77
122.86
122.86
122.78
122.86
122.87
122.93
122.88
122.85
122.95
123.02
122.96
122.93
123.03
123.02
122.95
123.01
123.11
123.1
123.03
123.1
123.12
123.02
123.1
123.19
123.19
123.19
123.11
123.18
123.27
123.12
123.17
123.28
123.19
123.27
123.27
123.35
123.36
123.35
123.28
123.41
123.38
123.25
123.36
123.42
123.45
123.5
123.38
123.41
123.54
123.5
123.46
123.49
123.54
123.57
123.55
123.57
123.63
123.57
123.63
123.65
123.71
123.66
123.7
123.74
123.79
123.67
123.69
123.75
123.86
123.84
123.78
123.83
123.86
123.76
123.85
123.85
123.92
123.94
123.92
123.94
124
124.03
123.92
124.02
124.01
124.02
124.01
124.1
124.1
124.1
124.1
124.1
124.1
124.18
124.11
124.17
124.19
124.09
124.18
124.26
124.19
124.25
124.2
124.24
124.28
124.32
124.29
124.24
124.36
124.41
124.37
124.32
124.37
124.33
124.44
124.42
124.44
124.42
124.44
124.5
124.52
124.51
124.52
124.59
124.61
124.59
124.53
124.58
124.61
124.66
124.62
124.58
124.69
124.75
124.7
124.66
124.7
124.75
124.71
124.74
124.87
124.76
124.77
124.76
124.85
124.77
124.76
124.85
124.93
124.94
124.85
124.93
124.94
124.93
124.93
125.01
124.94
125
125.03
125.01
125.03
124.93
125.01
125.1
125.1
125.1
125.1
125.1
125.18
125.2
125.18
125.2
125.18
125.27
125.19
125.26
125.28
125.26
125.28
125.35
125.29
125.34
125.3
125.33
125.38
125.33
125.38
125.42
125.39
125.41
125.47
125.41
125.55
125.51
125.46
125.42
125.54
125.52
125.53
125.52
125.53
125.6
125.54
125.59
125.63
125.52
125.61
125.61
125.69
125.7
125.69
125.71
125.69
125.71
125.69
125.71
125.69
125.71
125.77
125.8
125.85
125.81
125.76
125.88
125.85
125.88
125.86
125.88
125.86
125.8
125.85
125.97
125.86
125.95
125.87
125.94
125.97
125.94
125.96
125.94
125.96
126.03
126.05
126.03
126.05
126.03
126.05
126.11
126.14
126.03
126.13
126.12
126.21
126.22
126.21
126.22
126.21
126.21
126.21
126.29
126.3
126.21
126.29
126.31
126.29
126.38
126.38
126.38
126.38
126.46
126.4
126.45
126.57
126.55
126.49
126.54
126.58
126.54
126.65
126.63
126.65
126.72
126.74
126.72
126.82
126.81
126.9
126.91
126.9
126.99
126.91
126.9
126.99
126.91
126.9
126.91
126.98
127.08
126.99
126.99
126.91
126.9
126.83
126.89
126.92
126.97
126.93
126.96
127.02
126.89
126.92
126.97
127.01
126.97
127
126.98
127.08
127.07
127
127.06
127.09
127.15
127.1
127.14
127.19
127.15
127.18
127.15
127.18
127.15
127.17
127.24
127.26
127.24
127.26
127.16
127.25
127.26
127.25
127.26
127.24
127.26
127.33
127.35
127.33
127.43
127.34
127.42
127.35
127.41
127.44
127.42
127.52
127.51
127.52
127.51
127.52
127.6
127.53
127.59
127.62
127.59
127.62
127.59
127.61
127.59
127.61
127.68
127.62
127.67
127.71
127.67
127.71
127.68
127.7
127.68
127.7
127.68
127.7
127.69
127.7
127.69
127.69
127.69
127.77
127.7
127.68
127.7
127.68
127.7
127.68
127.7
127.76
127.71
127.67
127.71
127.68
127.71
127.68
127.7
127.68
127.7
127.6
127.61
127.6
127.69
127.61
127.59
127.61
127.68
127.62
127.58
127.62
127.5
127.61
127.52
127.59
127.61
127.6
127.53
127.5
127.53
127.51
127.44
127.41
127.52
127.43
127.35
127.34
127.34
127.34
127.26
127.24
127.26
127.25
127.18
127.24
127.19
127.15
127.1
127.06
127.18
127.07
127
126.98
126.92
126.97
126.93
126.88
126.92
126.81
126.74
126.8
126.75
126.71
126.67
126.62
126.66
126.63
126.58
126.54
126.57
126.46
126.48
126.38
126.38
126.39
126.22
126.2
126.14
126.2
126.15
126.11
126.06
126.1
125.99
125.92
125.98
125.93
125.82
125.75
125.81
125.76
125.72
125.67
125.64
125.59
125.63
125.6
125.63
125.6
125.46
125.42
125.54
125.44
125.44
125.44
125.36
125.43
125.37
125.35
125.29
125.34
125.29
125.25
125.29
125.26
125.21
125.17
125.2
125.18
125.12
125.09
125.11
125.02
124.94
125.01
125.03
124.93
124.86
124.85
124.85
124.85
124.77
124.84
124.86
124.84
124.78
124.75
124.7
124.75
124.71
124.74
124.79
124.67
124.7
124.67
124.69
124.67
124.69
124.68
124.69
124.68
124.61
124.67
124.69
124.67
124.61
124.59
124.61
124.67
124.62
124.58
124.69
124.67
124.61
124.59
124.61
124.67
124.62
124.66
124.7
124.59
124.61
124.67
124.69
124.75
124.62
124.65
124.71
124.66
124.7
124.66
124.78
124.76
124.7
124.67
124.69
124.75
124.7
124.67
124.7
124.75
124.7
124.74
124.79
124.75
124.71
124.74
124.71
124.73
124.79
124.74
124.79
124.75
124.78
124.75
124.78
124.83
124.79
124.83
124.87
124.91
124.8
124.82
124.8
124.81
124.88
124.82
124.96
124.92
124.87
124.83
124.87
124.99
124.96
124.91
125.03
125.01
124.95
125
125.03
125.01
125.03
125.01
125.02
125.09
125.11
125.1
125.11
125.18
125.11
125.17
125.2
125.26
125.21
125.17
125.28
125.27
125.2
125.34
125.38
125.34
125.37
125.35
125.29
125.42
125.38
125.41
125.55
125.51
125.46
125.5
125.55
125.59
125.55
125.5
125.55
125.59
125.63
125.67
125.72
125.68
125.71
125.76
125.8
125.77
125.79
125.77
125.79
125.86
125.88
125.94
125.97
125.94
125.96
126.03
125.97
126.02
125.98
126.01
126.14
126.19
126.15
126.18
126.24
126.19
126.15
126.18
126.24
126.27
126.24
126.18
126.32
126.36
126.32
126.44
126.5
126.44
126.49
126.45
126.57
126.55
126.48
126.54
126.65
126.64
126.65
126.72
126.66
126.71
126.66
126.71
126.83
126.88
126.76
126.79
126.92
126.88
126.84
126.88
126.93
126.97
127.01
126.97
127.01
127.06
127.01
127.05
127.18
127.23
127.19
127.14
127.26
127.24
127.18
127.24
127.35
127.33
127.26
127.32
127.43
127.42
127.43
127.43
127.43
127.51
127.52
127.59
127.53
127.59
127.62
127.67
127.71
127.59
127.69
127.69
127.77
127.79
127.77
127.79
127.85
127.8
127.84
127.89
127.93
127.98
127.93
127.98
128.01
128.07
128.02
128.07
128.1
128.16
128.11
128.15
128.03
128.22
128.22
128.22
128.31
128.31
128.23
128.3
128.4
128.39
128.32
128.38
128.5
128.48
128.42
128.47
128.59
128.56
128.51
128.55
128.6
128.64
128.61
128.63
128.7
128.72
128.71
128.71
128.8
128.8
128.8
128.8
128.89
128.8
128.89
128.89
128.97
128.82
128.95
128.92
128.95
129.01
129.04
128.93
129.02
129.11
129.03
129.1
129.13
129.11
129.12
129.11
129.12
129.28
129.14
129.18
129.31
129.28
129.23
129.27
129.32
129.36
129.32
129.36
129.41
129.45
129.42
129.36
129.49
129.46
129.49
129.55
129.58
129.56
129.49
129.55
129.67
129.57
129.57
129.57
129.65
129.75
129.66
129.66
129.65
129.75
129.66
129.74
129.76
129.74
129.75
129.83
129.85
129.92
129.86
129.91
129.95
129.92
129.94
129.92
130.03
130.02
130.02
130.02
130.11
130.12
130.11
130.04
130.09
130.22
130.11
130.12
130.19
130.22
130.19
130.22
130.19
130.3
130.29
130.3
130.38
130.4
130.29
130.38
130.39
130.38
130.39
130.38
130.48
130.48
130.39
130.47
130.49
130.47
130.58
130.57
130.49
130.56
130.59
130.56
130.67
130.66
130.59
130.65
130.68
130.73
130.69
130.72
130.79
130.73
130.78
130.82
130.79
130.81
130.8
130.8
130.98
130.82
130.87
130.91
130.97
131.01
130.97
130.91
130.97
131
131.06
131.01
131.14
131.03
131.04
131.03
131.12
131.13
131.12
131.22
131.22
131.31
131.23
131.21
131.31
131.31
131.22
131.22
131.31
131.32
131.31
131.41
131.32
131.4
131.41
131.4
131.5
131.5
131.5
131.5
131.58
131.52
131.48
131.6
131.58
131.6
131.58
131.69
131.68
131.69
131.6
131.68
131.69
131.77
131.7
131.76
131.8
131.76
131.8
131.85
131.89
131.77
131.79
131.77
131.96
131.97
131.87
131.96
131.97
131.96
131.97
131.96
132.06
132.07
132.06
132.07
132.06
132.07
132.06
132.07
132.15
132.17
132.15
132.17
132.15
132.25
132.16
132.24
132.26
132.24
132.26
132.24
132.35
132.26
132.25
132.34
132.35
132.34
132.35
132.34
132.44
132.44
132.44
132.44
132.52
132.46
132.43
132.54
132.53
132.54
132.53
132.63
132.54
132.61
132.64
132.62
132.64
132.62
132.64
132.62
132.73
132.72
132.73
132.72
132.73
132.81
132.74
132.8
132.84
132.8
132.84
132.89
132.94
132.81
132.92
132.91
132.92
133
132.93
132.99
132.94
132.98
133.04
133.08
133.13
133.08
133.04
133.07
133.14
133.17
133.14
133.16
133.15
133.16
133.24
133.17
133.32
133.28
133.23
133.27
133.32
133.36
133.33
133.27
133.41
133.38
133.41
133.38
133.49
133.49
133.4
133.48
133.5
133.49
133.49
133.58
133.59
133.58
133.59
133.59
133.58
133.68
133.59
133.67
133.69
133.67
133.69
133.68
133.78
133.78
133.68
133.77
133.78
133.78
133.78
133.78
133.87
133.88
133.78
133.87
133.88
133.87
133.88
133.88
133.88
133.97
133.89
133.87
133.97
133.97
133.97
133.97
133.97
133.97
134.06
134.08
134.15
134.18
134.15
134.18
134.16
134.27
134.17
134.25
134.27
134.26
134.27
134.26
134.27
134.35
134.37
134.35
134.37
134.44
134.38
134.43
134.49
134.43
134.48
134.44
134.48
134.44
134.48
134.53
134.58
134.54
134.57
134.54
134.57
134.64
134.58
134.63
134.68
134.72
134.69
134.62
134.78
134.73
134.77
134.74
134.86
134.85
134.76
134.83
134.87
134.84
134.86
134.84
134.86
134.84
134.86
134.85
134.94
134.95
134.94
135.05
135.05
135.05
135.05
134.96
135.03
135.06
135.12
135.08
135.02
135.16
135.13
135.16
135.13
135.16
135.22
135.26
135.23
135.26
135.23
135.26
135.23
135.26
135.32
135.27
135.22
135.36
135.33
135.35
135.33
135.44
135.44
135.35
135.43
135.45
135.52
135.46
135.51
135.57
135.52
135.56
135.52
135.65
135.63
135.55
135.62
135.75
135.73
135.65
135.72
135.66
135.71
135.76
135.72
135.67
135.8
135.78
135.8
135.88
135.81
135.87
135.81
135.96
135.93
135.86
135.92
135.96
135.92
135.95
135.93
136.04
136.04
136.04
136.04
136.03
136.05
136.03
136.05
136.03
136.14
136.14
136.15
136.23
136.25
136.13
136.15
136.13
136.24
136.14
136.23
136.25
136.33
136.26
136.22
136.26
136.32
136.36
136.32
136.35
136.42
136.36
136.32
136.45
136.43
136.36
136.42
136.46
136.42
136.36
136.41
136.46
136.51
136.38
136.4
136.57
136.51
136.47
136.5
136.57
136.61
136.58
136.6
136.68
136.61
136.67
136.61
136.67
136.72
136.67
136.71
136.68
136.7
136.78
136.71
136.77
136.81
136.78
136.81
136.88
136.91
136.88
136.9
136.98
136.91
136.88
136.91
136.98
137.01
136.98
137.01
136.99
137
137.09
137.01
137.08
137.12
137.08
137.11
137.18
137.12
137.17
137.13
137.16
137.23
137.17
137.13
137.26
137.34
137.27
137.24
137.35
137.26
137.24
137.35
137.35
137.36
137.25
137.35
137.45
137.46
137.35
137.45
137.46
137.45
137.45
137.45
137.55
137.57
137.45
137.55
137.46
137.54
137.57
137.54
137.66
137.66
137.56
137.64
137.67
137.74
137.68
137.73
137.69
137.72
137.79
137.73
137.79
137.83
137.8
137.82
137.8
137.91
137.92
137.91
138.02
137.92
138.01
137.93
138.1
137.95
138.08
138.06
137.98
138.15
138.1
138.14
138.2
138.15
138.19
138.15
138.19
138.25
138.2
138.25
138.3
138.25
138.29
138.26
138.38
138.37
138.28
138.36
138.49
138.48
138.39
138.47
138.49
138.37
138.48
138.49
138.57
138.6
138.47
138.59
138.58
138.68
138.6
138.67
138.7
138.68
138.6
138.67
138.71
138.57
138.69
138.69
138.79
138.8
138.69
138.79
138.8
138.79
138.79
138.79
138.79
138.89
138.81
138.88
138.91
138.88
138.91
138.88
139
139
138.91
138.99
139.01
138.99
138.91
138.98
139.02
139.08
139.03
139.07
139.14
139.17
139.15
139.07
139.24
139.19
139.13
139.18
139.24
139.28
139.25
139.18
139.24
139.28
139.25
139.27
139.35
139.28
139.34
139.29
139.34
139.39
139.34
139.39
139.55
139.51
139.35
139.39
139.55
139.41
139.43
139.51
139.54
139.61
139.54
139.51
139.64
139.53
139.52
139.63
139.63
139.63
139.53
139.62
139.64
139.62
139.63
139.63
139.73
139.74
139.63
139.73
139.74
139.73
139.74
139.74
139.83
139.85
139.73
139.84
139.84
139.84
139.84
139.84
139.74
139.83
139.85
139.93
139.96
139.93
139.86
139.92
139.97
139.93
139.87
139.92
139.97
139.92
139.97
140.02
139.98
140.02
139.99
140.01
140.09
140.02
139.99
140.11
140.11
140.1
140.11
140.1
140.11
140.09
140.22
140.11
140.3
140.13
140.18
140.24
140.29
140.25
140.28
140.25
140.27
140.26
140.27
140.26
140.36
140.38
140.26
140.27
140.36
140.38
140.36
140.39
140.45
140.5
140.36
140.39
140.36
140.48
140.37
140.47
140.48
140.47
140.48
140.48
140.48
140.58
140.49
140.56
140.5
140.45
140.5
140.56
140.61
140.56
140.5
140.55
140.61
140.56
140.61
140.56
140.6
140.57
140.6
140.57
140.69
140.69
140.59
140.68
140.7
140.68
140.7
140.68
140.7
140.78
140.71
140.77
140.72
140.76
140.73
140.76
140.74
140.75
140.74
140.74
140.85
140.75
140.74
140.75
140.84
140.86
140.85
140.75
140.94
140.88
140.93
140.88
141.02
140.9
140.9
141.01
141.01
141.11
141.02
141
141.12
141.12
141.02
141.11
141.13
141.01
141.11
141.13
141.11
141.13
141.11
141.13
141.11
141.23
141.12
141.22
141.23
141.22
141.13
141.21
141.24
141.31
141.25
141.3
141.36
141.31
141.36
141.32
141.35
141.32
141.35
141.42
141.36
141.41
141.47
141.42
141.56
141.44
141.44
141.44
141.64
141.47
141.51
141.69
141.63
141.58
141.62
141.69
141.63
141.69
141.63
141.69
141.63
141.78
141.65
141.77
141.77
141.77
141.77
141.76
141.87
141.88
141.77
141.86
141.89
141.97
141.9
141.95
142.02
142.06
142.03
141.95
142.02
142.05
142.03
142.04
142.14
142.05
142.13
142.16
142.24
142.17
142.13
142.16
142.24
142.27
142.25
142.26
142.36
142.17
142.34
142.29
142.33
142.3
142.32
142.4
142.44
142.41
142.43
142.41
142.53
142.54
142.42
142.52
142.54
142.53
142.53
142.53
142.53
142.53
142.63
142.65
142.63
142.65
142.63
142.65
142.63
142.76
142.74
142.76
142.74
142.76
142.74
142.86
142.86
142.76
142.84
142.88
142.85
142.98
142.86
142.96
142.98
142.97
142.98
143.07
142.99
143.06
143.1
143.06
143.1
143.07
143.1
143.07
143.09
143.17
143.11
143.16
143.22
143.17
143.22
143.28
143.23
143.27
143.34
143.27
143.43
143.4
143.43
143.4
143.43
143.51
143.44
143.5
143.55
143.61
143.56
143.49
143.55
143.5
143.55
143.61
143.66
143.72
143.67
143.71
143.68
143.7
143.79
143.71
143.88
143.84
143.77
143.83
143.89
143.84
143.88
143.84
143.87
143.95
143.88
143.94
144
143.85
143.97
144.08
144.09
143.98
144.07
144.1
144.07
144.2
144.08
144.09
144.19
144.21
144.18
144.21
144.18
144.21
144.18
144.31
144.3
144.31
144.3
144.31
144.3
144.31
144.41
144.43
144.41
144.43
144.41
144.54
144.43
144.42
144.53
144.54
144.53
144.64
144.55
144.63
144.66
144.63
144.56
144.51
144.66
144.64
144.55
144.41
144.32
144.29
144.22
144.07
144.09
143.97
143.97
144.07
144.09
143.97
144.08
144.09
144.08
144.2
144.09
144.08
144.09
144.18
144.21
144.18
144.21
144.18
144.21
144.19
144.2
144.4
144.44
144.4
144.54
144.52
144.54
144.63
144.77
144.86
144.99
145.19
145.34
145.43
145.35
145.41
145.47
145.42
145.46
145.53
145.58
145.53
145.58
145.54
145.68
145.56
145.55
145.67
145.78
145.79
145.67
145.78
145.79
145.78
145.79
145.78
145.79
145.78
145.79
145.79
145.89
145.91
145.89
145.91
146
145.92
145.88
145.92
145.88
146.03
146
146.03
146.11
145.93
145.98
146.05
146.09
146.06
146.08
146.07
146.07
146.18
146.08
146.18
145.98
146.15
146.11
146.04
146.1
146.16
146.11
146.15
146.11
146.15
146.23
146.16
146.22
146.38
146.24
146.25
146.35
146.37
146.35
146.37
146.36
146.36
146.47
146.37
146.46
146.49
146.46
146.38
146.45
146.39
146.45
146.51
146.45
146.5
146.46
146.49
146.47
146.49
146.58
146.5
146.57
146.72
146.59
146.59
146.7
146.71
146.71
146.71
146.71
146.82
146.84
146.81
146.84
146.81
146.95
146.83
146.93
146.95
147.05
146.96
147.03
147.08
147.04
147.08
147.04
147.18
147.17
147.18
147.17
147.18
147.28
147.19
147.27
147.31
147.39
147.32
147.27
147.21
147.36
147.34
147.36
147.46
147.37
147.34
147.25
147.44
147.38
147.33
147.37
147.33
147.36
147.45
147.37
147.44
147.38
147.44
147.39
147.32
147.38
147.44
147.39
147.32
147.16
147.19
147.05
147.06
147.06
146.95
146.94
147.05
147.07
146.94
146.83
146.92
146.96
146.92
146.96
147.03
147.3
147.28
147.41
147.52
147.65
147.53
147.52
147.64
147.54
147.52
147.54
147.41
147.52
147.42
147.4
147.42
147.29
147.29
147.29
147.29
147.4
147.31
147.28
147.41
147.52
147.43
147.39
147.43
147.4
147.42
147.4
147.31
147.38
147.32
147.15
147.19
147.27
147.21
147.26
147.33
147.26
147.32
147.27
147.32
147.16
147.19
147.17
147.18
147.17
146.96
147.03
147.19
147.16
147.19
147.16
147.18
147.17
147.18
147.17
147.18
147.28
147.19
147.27
147.31
147.38
147.32
147.37
147.44
147.38
147.44
147.39
147.54
147.52
147.43
147.5
147.55
147.62
147.56
147.5
147.55
147.51
147.55
147.51
147.54
147.63
147.44
147.49
147.56
147.61
147.57
147.49
147.56
147.5
147.44
147.49
147.45
147.48
147.46
147.37
147.56
147.5
147.44
147.49
147.45
147.38
147.33
147.37
147.34
147.36
147.34
147.25
147.44
147.28
147.31
147.28
147.19
147.27
147.2
147.16
147.3
147.29
147.3
147.4
147.53
147.64
147.54
147.63
147.77
147.76
147.65
147.86
147.79
147.74
147.78
147.75
147.78
147.75
147.66
147.63
147.66
147.64
147.65
147.53
147.52
147.53
147.41
147.52
147.42
147.4
147.31
147.28
147.31
147.28
147.19
147.27
147.21
147.15
145.8
145.66
145.8
145.66
145.9
145.68
145.77
145.58
145.75
145.6
145.74
145.61
145.62
145.61
145.62
145.61
145.62
145.5
145.6
145.51
145.59
145.53
145.47
145.52
145.58
145.43
145.45
145.54
145.46
145.43
145.45
145.44
145.34
145.43
145.35
145.42
145.46
145.32
145.33
145.33
145.33
145.23
143.94
143.79
143.92
143.91
144.03
143.82
144
143.95
143.99
143.85
143.97
143.98
143.86
143.86
143.86
143.87
143.96
143.88
143.84
145.68
145.89
145.69
145.87
145.71
145.96
145.74
145.93
145.77
145.8
145.88
145.92
145.89
146.02
145.91
145.89
146.02
146.01
146.02
146.11
146.15
146.01
146.03
146.11
146.15
146
146.03
146.11
146.04
146.1
146.16
146.1
146.16
146.1
146.16
146.11
146.15
146.22
146.27
146.22
146.38
146.24
146.36
146.37
146.36
146.37
146.36
146.48
146.37
146.35
146.48
146.48
146.47
146.48
146.47
146.59
146.6
146.59
146.59
146.7
146.61
146.58
146.6
146.69
146.72
146.59
146.7
146.82
146.72
146.81
146.84
146.71
146.82
146.83
146.82
146.94
146.94
146.84
146.92
146.96
146.92
147.07
146.94
146.94
146.94
147.05
147.06
147.06
147.06
147.17
147.08
147.15
148.63
148.79
148.53
148.77
148.66
148.76
148.67
148.75
148.79
148.76
148.67
148.75
148.79
148.87
148.68
148.85
148.82
148.84
148.82
148.84
148.83
148.84
148.83
148.83
148.83
148.83
148.95
148.84
148.82
148.95
148.84
148.82
148.84
148.82
148.85
148.82
148.85
148.82
148.85
148.82
148.85
148.93
148.86
148.8
148.97
148.93
148.86
148.92
148.98
148.92
148.87
148.8
148.86
148.8
148.86
148.81
148.86
148.92
148.87
148.8
148.86
148.92
148.98
148.92
150.33
150.47
150.34
150.46
150.46
150.47
150.34
150.58
150.36
150.44
150.37
150.44
150.49
150.45
150.48
150.57
150.6
150.58
150.48
150.68
150.61
150.56
150.6
150.69
150.61
150.68
150.62
150.67
150.63
150.67
150.63
150.66
150.75
150.67
150.74
150.8
150.75
149.66
149.57
149.66
149.46
149.64
149.59
149.53
149.46
149.64
149.36
149.49
149.38
149.48
149.39
149.46
149.41
149.45
149.42
149.33
149.41
149.45
152.99
153.64
153.17
153.6
153.21
153.56
153.24
153.53
153.27
153.5
153.3
153.47
153.33
153.57
153.48
153.55
153.5
153.53
153.52
153.64
153.55
153.61
153.57
153.47
153.69
