417.53
417.64
417.55
417.38
417.52
417.65
417.54
417.39
417.27
417.13
417.25
417.15
416.99
417.13
417.01
416.87
416.5
416.58
416.28
416.05
416.01
416.04
415.78
415.51
415.51
414.3
413.18
412.71
412.65
412.46
412.39
412.21
412.36
412.24
412.11
411.98
412.09
412
412.07
412.01
411.82
411.99
411.84
411.74
411.59
411.48
411.57
411.5
411.32
411.24
411.31
411.25
410.83
410.96
410.84
410.7
410.83
410.72
410.81
410.73
410.56
410.95
410.62
410.43
410.6
410.45
410.35
410.43
410.36
410.18
410.34
410.43
410.36
410.42
410.37
410.17
410.11
410.39
410.39
410.15
410.37
410.41
410.38
410.17
410.12
410.15
410.13
410.15
410.13
410.14
410.14
409.9
410.11
410.16
409.89
409.88
409.89
409.88
409.89
409.64
409.86
409.91
409.64
409.63
409.87
409.66
409.84
409.46
409.55
409.71
409.56
409.46
409.31
409.68
409.36
409.17
409.1
409.16
409.34
409.19
409.31
409.21
409.06
408.97
409.04
409.22
408.82
408.93
409.07
408.96
408.81
408.94
408.83
408.93
408.84
408.68
408.58
408.67
408.83
408.46
408.54
408.48
408.29
408.46
408.31
408.44
408.32
408.2
408.07
408.18
408.09
408.17
408.1
408.15
408.11
407.91
407.85
408.13
407.9
407.86
407.9
407.86
407.67
407.59
407.91
407.62
407.64
407.39
407.38
407.38
407.38
407.15
407.12
407.14
406.9
406.64
406.63
406.64
406.64
406.4
406.38
406.17
406.35
406.19
406.09
406.18
405.87
405.68
405.38
405.64
405.42
405.15
405.16
405.15
404.93
404.66
404.9
404.69
404.41
404.19
404.15
403.96
403.67
403.69
403.67
403.46
403.19
402.97
403.16
403
402.68
402.51
402.42
402.5
402.2
402.01
401.72
401.75
401.73
401.29
401.21
401.06
400.74
400.57
400.27
400.31
399.82
399.57
399.35
399.31
399.12
398.62
398.61
398.39
398.36
397.73
397.6
397.49
397.36
397.04
396.65
396.56
395.97
395.61
395.48
395.38
394.8
394.65
394.56
394.2
393.86
393.51
393.37
393.28
392.92
392.59
392.44
392.14
391.75
391.45
391.28
391.22
390.84
390.74
390.61
390.51
390.17
390.04
389.94
389.81
389.5
389.56
389.3
389.3
389.31
389.29
388.89
388.8
388.68
388.56
388.68
388.35
388.23
388.11
388.22
387.91
387.77
387.46
387.53
387.25
387.28
386.83
386.81
386.62
386.57
386.4
386.13
385.95
385.69
385.5
385.25
385.05
385.01
384.84
384.57
384.6
384.37
384.15
384.13
383.94
383.49
383.47
383.28
383.24
383.08
382.8
382.84
382.6
382.4
382.16
381.96
381.72
381.52
381.29
381.28
381.09
380.85
380.65
380.62
380.25
380.16
380.04
379.73
379.6
379.5
379.19
378.85
378.95
378.46
378.29
378.23
378.08
377.81
377.65
377.58
377.44
377.16
377.01
376.74
376.58
376.52
376.38
376.1
375.95
375.88
375.74
375.66
375.73
375.08
375.25
375.3
375.25
375.11
374.83
374.49
374.58
374.31
373.94
374.08
373.76
373.65
373.35
373.23
373.13
373.02
372.72
372.79
372.34
372.54
372.18
372.1
371.98
371.88
371.78
371.47
371.55
371.28
371.13
371.07
370.94
370.85
370.74
370.45
370.51
370.26
369.9
369.63
369.68
369.45
369.65
369.48
369.43
369.29
369.02
369.06
369.03
368.87
368.43
368.44
368.24
368.03
368.02
367.84
367.62
367.62
367.43
367.22
367.02
366.82
366.62
366.41
366.21
366.2
366.03
365.8
365.81
365.61
365.41
365.4
365.41
365.4
365.03
364.98
365.03
364.98
364.84
364.77
364.83
364.59
364.43
364.38
364.43
364.39
364.24
364.18
364.42
364.4
364.23
364.19
364.22
364.19
364.22
364.01
364
364.2
364.21
363.83
363.97
363.85
363.76
363.85
363.77
363.66
363.56
363.47
363.36
363.28
363.16
362.9
362.74
362.89
362.57
362.3
361.98
361.9
361.6
361.31
361.19
361.3
361.02
360.9
360.82
360.71
360.62
360.51
360.42
360.68
360.64
360.49
360.44
360.3
360.6
360.35
360.38
360.36
360.55
360.57
360.37
360.73
360.41
360.51
360.43
360.49
360.44
360.66
360.48
360.45
360.48
360.08
360.44
360.12
360.21
360.14
360.02
360.12
360.22
360.13
360.2
360.14
360.2
360.15
360.19
360.34
360.03
360.12
360.04
360.1
360.23
360.12
360.22
360.31
360.24
360.3
360.25
360.47
360.29
360.25
360.29
360.43
360.68
360.27
360.27
360.45
360.48
360.26
360.28
360.26
360.46
360.28
360.44
360.3
360.42
360.5
360.43
360.49
360.62
360.51
360.42
360.68
360.64
360.68
360.83
360.7
360.81
360.72
360.79
360.73
360.59
360.72
360.43
360.68
360.64
360.49
360.62
360.69
360.63
360.5
360.43
360.68
360.64
360.31
360.42
360.33
360.4
360.34
360.39
360.54
360.58
360.55
360.39
360.53
360.4
360.52
360.42
360.69
360.63
360.68
360.64
360.67
360.83
360.87
360.84
361.05
361.05
361.04
361.06
361.04
361.24
361.07
361.22
361.27
361.23
361.08
361.21
361.46
361.24
361.07
361.22
361.27
361.41
361.29
361.39
361.49
361.58
361.5
361.57
361.7
361.58
361.69
361.59
361.68
361.79
361.69
361.77
361.89
361.97
361.9
361.77
361.89
361.97
361.9
361.96
361.91
362.13
362.13
362.12
362.32
361.96
362.09
361.98
362.08
362.18
362.09
362.16
362.28
362.36
362.48
362.56
362.67
362.58
362.47
362.57
362.67
362.76
362.68
362.57
362.85
362.79
362.65
362.78
363.03
363.19
363.05
363.17
363.25
363
363.21
363.22
363.2
363.41
363.04
363.18
363.43
363.4
363.42
363.59
363.62
363.6
363.61
363.61
363.79
363.82
363.61
363.8
363.81
363.81
363.62
363.78
364.02
364.19
363.85
363.95
364.24
364.17
364.05
364.16
364.44
364.38
364.43
364.75
364.85
364.76
364.84
364.96
365.04
365.34
365.28
365.51
365.88
365.74
366.24
366.37
366.44
366.38
366.44
366.57
366.83
366.79
366.82
366.99
367.03
367.18
367.06
367.16
367.26
367.36
367.47
367.37
367.46
367.38
367.45
367.39
367.63
367.8
367.46
367.38
367.64
367.79
367.66
367.58
367.84
367.81
367.65
367.79
368.04
368.01
367.85
367.99
367.87
368.16
368.1
368.15
368.3
368.35
368.32
368.15
368.49
368.38
368.29
368.37
368.49
368.38
368.47
368.59
368.49
368.57
368.69
368.59
368.87
368.82
368.67
368.8
369.26
369.06
368.84
369.03
369.05
369.23
369.26
369.24
369.26
369.25
369.25
369.44
369.46
369.26
369.43
369.67
369.65
369.86
369.67
369.84
369.88
369.85
369.88
370.04
369.9
370.02
369.92
370
370.13
370.02
370.12
370.03
370.3
370.45
370.32
370.43
370.53
370.44
370.51
370.45
370.7
370.68
370.5
370.65
370.71
370.85
370.73
370.84
370.94
370.85
370.93
371.05
371.14
371.06
371.13
371.07
371.32
371.3
371.12
371.27
371.14
371.45
371.19
371.21
371.39
371.23
371.38
371.24
371.55
371.48
371.35
371.46
371.56
371.47
371.55
371.48
371.54
371.68
371.56
371.67
371.57
371.65
371.59
371.64
371.79
371.66
371.58
371.64
371.79
371.85
371.8
371.65
371.78
371.86
371.79
371.85
372
371.87
371.98
371.88
372.16
371.92
371.93
372.12
372.14
372.13
371.94
371.92
372.12
372.34
371.95
371.91
372.14
372.14
371.94
372.11
371.96
372.09
372.17
372.1
371.97
372.09
371.98
372.07
372
372.06
372.01
371.85
371.99
372.06
372.01
372.05
372.21
372.07
372.19
372.08
372.18
372.1
371.97
372.08
372.37
372.32
372.17
372.11
372.35
372.14
372.12
372.34
372.15
372.13
372.14
372.33
372.35
372.33
372.15
372.12
372.15
372.51
372.2
372.08
372.38
372.31
372.37
372.32
372.17
372.3
372.38
372.31
372.37
372.51
372.39
372.3
372.57
372.34
372.35
372.54
372.56
372.35
372.53
372.57
372.53
372.57
372.53
372.57
372.53
372.38
372.5
372.59
372.51
372.78
372.54
372.56
372.74
372.78
372.55
372.75
372.77
372.75
372.77
372.75
372.77
372.94
372.8
372.92
372.82
372.9
373.03
372.91
373.02
372.92
373.01
372.92
373.01
373.13
373.03
373.11
373.24
373.12
373.23
373.32
373.25
373.3
373.26
373.29
373.47
373.11
373.43
373.35
373.42
373.36
373.41
373.36
373.6
373.59
373.4
373.38
373.59
373.6
373.58
373.61
373.58
373.61
373.58
373.61
373.77
373.84
373.58
373.81
373.8
373.61
373.77
374.03
374
374.03
373.8
374
374.02
373.81
373.79
374.01
374.02
374.01
374.02
374.01
374.01
374.21
374.04
374.18
374.26
374.19
374.25
374.2
374.25
374.4
374.27
374.18
374.26
374.19
374.26
374.19
374.44
374.42
374.44
374.43
374.44
374.63
374.46
374.6
374.68
374.41
374.65
374.64
374.64
374.84
374.67
374.82
374.89
374.82
374.88
374.83
374.88
374.84
374.87
374.84
375.06
375.07
375.06
375.07
375.06
375.07
375.06
375.27
375.09
375.24
375.31
375.25
375.3
375.06
375.27
375.48
375.49
375.49
375.49
375.68
375.71
375.69
375.71
375.69
375.9
375.92
375.9
375.92
376.1
375.95
375.88
375.94
376.08
376.17
376.09
376.16
376.29
376.38
376.3
376.18
376.27
376.39
376.28
376.38
376.49
376.4
376.47
376.42
376.46
376.43
376.64
376.87
376.46
376.82
376.51
376.58
376.72
376.8
376.73
376.79
376.94
377
376.95
376.99
376.96
376.98
377.17
377
377.15
377.42
377.39
377.41
377.59
377.63
377.6
377.62
377.61
377.61
377.82
377.64
377.6
377.83
378.03
377.65
377.98
378.1
378
377.88
377.78
377.87
377.99
377.89
377.97
378.1
377.99
378.09
378
378.28
378.24
378.27
378.25
378.06
378.23
378.28
378.44
378.3
378.22
378.29
378.43
378.51
378.44
378.3
378.42
378.52
378.43
378.51
378.64
378.52
378.63
378.54
378.61
378.76
378.63
378.74
378.84
378.96
379.06
378.97
379.04
378.99
379.03
379.2
379.25
379.41
379.27
379.39
379.28
379.38
379.5
379.6
379.51
379.79
379.75
379.78
379.76
379.97
380
379.76
379.97
379.99
379.98
379.98
379.98
379.98
380.19
380
380.17
380.23
380.18
380.02
379.95
380.21
380.19
380
380.17
380.03
380.15
380.25
380.16
380.44
380.6
380.46
380.58
380.68
380.79
380.7
380.57
380.89
380.82
380.88
380.83
380.87
380.83
380.86
380.84
381.06
381.08
380.86
380.85
381.05
381.29
381.08
381.26
381.31
381.47
381.33
381.24
381.53
381.49
381.32
381.46
381.54
381.47
381.54
381.48
381.53
381.69
381.75
381.7
381.75
381.91
381.77
381.68
381.96
381.92
381.96
381.93
381.95
382.14
382.18
382.14
382.38
382.38
382.17
382.35
382.4
382.36
382.19
382.34
382.21
382.52
382.47
382.3
382.45
382.52
382.67
382.53
382.86
382.78
382.85
382.79
383.05
382.83
382.81
383.04
382.83
383.01
383.06
383.02
383.05
383.23
383.08
383.21
383.3
383.22
383.29
383.44
383.52
383.45
383.3
383.42
383.53
383.64
383.55
383.63
383.56
383.61
383.78
383.83
384
383.85
383.78
383.84
384
383.65
383.95
383.9
383.94
384.11
383.96
384.1
384.18
383.9
384.14
384.35
384.37
384.36
384.36
384.58
384.59
384.79
384.41
384.53
384.63
384.54
384.62
384.56
384.82
384.8
384.6
384.78
384.83
384.79
384.82
384.8
385.02
385.25
384.84
385.19
384.89
384.94
385.11
384.95
385.1
385.18
385.11
385.16
385.33
385.18
385.32
385.2
385.3
385.42
385.11
385.37
385.36
385.36
385.58
385.38
385.76
385.43
385.51
385.45
385.71
385.7
385.49
385.67
385.51
385.65
385.74
385.67
385.93
385.92
385.72
385.89
385.94
385.9
385.94
385.91
386.14
386.16
385.92
386.13
385.95
386.32
386.21
386.3
386.43
386.1
386.18
386.32
386.41
386.33
386.19
386.31
386.42
386.33
386.2
386.1
386.19
386.32
386.41
386.54
386.43
386.52
386.66
386.54
386.85
386.79
386.63
386.77
386.86
386.57
386.82
386.82
387.02
387.06
386.81
387.03
387.05
387.04
387.04
387.04
387.25
387.29
387.04
387.26
387.27
387.26
387.06
387.23
387.51
387.48
387.29
387.24
387.29
387.46
387.31
387.44
387.54
387.45
387.53
387.45
387.53
387.46
387.52
387.47
387.72
387.71
387.51
387.69
387.95
387.72
387.71
387.93
387.95
387.94
387.74
387.91
387.97
387.92
387.76
387.89
387.99
388.11
388.01
387.88
388.21
388.13
387.99
388.11
388.22
388.33
388.03
388.07
388.05
388.06
388.06
388.05
388.28
388.07
388.26
388.3
388.48
388.11
388.43
388.36
388.42
388.38
388.2
388.35
388.43
388.37
388.42
388.38
388.62
388.42
388.37
388.42
388.58
388.45
388.34
388.66
388.58
388.24
388.31
388.69
388.35
388.65
388.38
388.62
388.62
388.62
388.41
388.59
388.65
388.6
388.43
388.57
388.67
388.58
388.66
388.38
388.83
388.86
388.62
388.62
388.62
388.83
388.65
388.6
388.64
388.81
388.67
388.79
388.9
388.59
388.86
388.83
388.86
389.05
388.89
389.02
388.91
389
388.93
388.77
389.13
388.81
388.88
388.82
389.08
389.07
388.87
388.83
388.86
389.05
389.1
389.05
389.09
389.06
389.09
389.06
389.08
389.07
389.08
389.07
389.29
389.32
389.08
389.29
389.32
389.29
389.1
389.26
389.34
389.27
389.33
389.49
389.35
389.26
389.34
389.48
389.58
389.27
389.54
389.52
389.53
389.53
389.53
389.53
389.74
389.77
389.53
389.53
389.74
389.78
389.53
389.75
389.77
389.54
389.73
389.78
389.73
389.99
389.77
389.96
389.79
389.94
389.82
389.7
390.02
389.95
390.01
389.96
390.01
389.97
390
389.97
390
389.97
389.99
390.19
390.23
390.2
390.02
390.17
390.25
390.18
390.24
390.19
390.24
390.19
390.23
390.2
390.44
390.45
390.22
390.21
390.22
390.42
390.46
390.43
390.46
390.64
390.48
390.41
390.69
390.66
390.47
390.63
390.49
390.61
390.73
390.41
390.69
390.66
390.68
390.66
390.68
390.67
390.89
390.91
390.89
390.91
390.88
390.92
391.1
391.16
390.89
391.13
391.13
391.13
391.13
390.92
391.1
391.16
391.1
391.37
391.13
391.12
391.13
391.34
391.38
391.34
391.16
391.53
391.43
391.51
391.45
391.27
391.44
391.5
391.46
391.48
391.68
391.29
391.64
391.55
391.63
391.77
391.65
391.54
391.85
391.79
391.63
391.56
391.83
391.81
391.83
391.82
391.82
392.03
391.85
392.01
391.87
391.99
392.1
392
392.09
392.23
392.11
392.21
392.13
392.19
392.36
392.21
392.56
392.26
392.51
392.51
392.51
392.52
392.5
392.52
392.71
392.56
392.68
392.8
392.68
392.8
392.47
392.76
392.72
392.76
392.72
392.76
392.94
392.79
392.91
393.25
393.16
393.24
393.17
393.24
393.39
393.48
393.4
393.47
393.62
393.72
393.41
393.68
393.66
393.89
393.92
393.67
393.89
394.13
394.14
393.91
394.11
394.16
394.12
394.15
394.12
394.36
394.37
394.14
394.35
394.39
394.35
394.38
394.36
394.59
394.39
394.34
394.39
394.34
394.61
394.59
394.61
394.59
394.61
394.59
394.62
394.59
394.83
394.62
394.81
394.65
394.78
394.89
394.79
394.88
395.02
394.9
394.78
395.1
395.04
395.1
395.05
395.09
395.27
395.11
395.25
395.35
395.26
395.34
395.27
395.33
395.5
395.36
395.26
395.34
395.49
395.37
395.47
395.6
395.48
395.37
395.46
395.82
395.73
395.81
395.74
395.58
395.72
395.82
395.73
396.03
395.77
395.77
396
396.01
396
395.79
395.98
396.03
395.99
396.03
396.21
396.27
396.22
396.26
396.23
396.47
396.27
396.22
396.27
396.22
396.49
396.25
396.46
396.28
396.43
396.3
396.41
396.54
396.64
396.56
396.62
396.58
396.61
396.81
396.63
396.8
396.64
396.78
396.88
397.02
396.89
397
396.91
397.21
397.17
396.98
397.15
397.22
397.16
396.99
397.14
397.23
397.37
397.25
397.35
397.49
397.37
397.48
397.38
397.46
397.61
397.48
397.37
397.69
397.64
397.46
397.62
397.48
397.6
397.72
397.61
397.7
397.63
397.69
397.64
397.9
397.9
397.89
397.91
398.11
397.94
397.85
397.94
398.08
398.19
397.86
398.16
398.12
398.16
398.12
398.16
398.12
398.38
398.15
398.13
398.37
398.38
398.14
398.35
398.4
398.36
398.17
398.33
398.2
398.3
398.44
398.31
398.43
398.32
398.42
398.55
398.44
398.53
398.46
398.29
398.23
398.27
398.24
398.26
398.48
398.28
398.24
398.04
398.44
398.09
398.17
398.1
398.16
398.11
397.93
398.09
398.18
398.1
397.94
397.86
397.93
398.09
397.73
397.6
397.72
397.84
397.73
397.6
397.72
397.61
397.48
397.37
397.47
397.39
397.23
397.15
397.22
397.16
396.99
397.14
397.01
396.9
396.77
396.67
396.98
396.71
396.5
396.69
396.52
396.67
396.32
396.18
396.3
396.41
396.1
395.93
396.08
395.95
395.84
395.71
395.83
395.73
395.37
395.24
395.36
395.04
395.09
395.05
395.08
395.06
394.85
394.82
394.63
394.58
394.4
394.56
394.42
394.32
393.97
394.06
394.2
393.86
393.72
393.62
393.49
393.6
393.3
393.13
393.06
392.9
393.04
392.91
392.81
392.47
392.55
392.48
392.54
392.28
392.06
392.25
392.09
391.8
391.62
391.57
391.61
391.58
391.17
391.09
391.16
391.1
390.72
390.62
390.5
390.61
390.52
390.16
390.04
390.15
390.06
389.92
389.83
389.48
389.57
389.49
389.35
389.26
389.13
389.03
388.9
388.8
388.68
388.57
388.45
388.34
388.23
388.12
388
388.1
387.81
387.84
387.82
387.41
387.35
387.19
387.33
387
386.87
386.98
386.88
386.55
386.42
386.33
386.41
386.34
385.98
386.08
385.99
385.65
385.53
385.43
385.52
385.23
385.06
385.01
385.25
385.05
384.8
384.82
384.59
384.58
384.38
384.35
384.37
384.36
384.16
384.13
384.36
384.17
383.91
384.14
383.73
383.88
383.55
383.62
383.57
383.4
383.55
383.42
383.54
383.02
383.05
383.23
383.08
383.01
382.86
382.99
382.88
382.76
382.66
382.54
382.65
382.55
382.43
382.33
382.42
382.34
382.21
382.12
381.99
382.1
382.01
382.08
382.03
381.87
381.81
381.65
381.99
381.69
381.75
381.91
381.56
381.66
381.58
381.64
381.8
381.46
381.34
381.44
381.56
381.25
381.32
381.47
381.54
381.27
381.09
381.05
381.08
381.06
380.87
381.04
380.89
380.82
380.88
380.83
380.67
380.81
380.69
380.79
380.9
380.8
380.69
380.79
380.91
380.8
380.69
380.78
380.91
380.8
380.69
380.58
380.88
380.62
380.64
380.63
380.83
380.87
380.83
380.87
380.83
380.87
380.62
380.85
380.85
380.85
380.85
380.85
380.85
381.06
380.87
381.03
380.9
381.01
380.92
380.99
381.14
381.01
381.12
381.22
381.35
381.24
381.33
381.45
381.55
381.46
381.34
381.44
381.76
381.69
381.35
381.43
381.77
381.68
381.76
381.69
381.95
381.73
381.72
381.94
382.15
382.17
381.94
382.15
382.17
381.95
382.14
382.18
382.34
382.42
382.14
382.38
382.37
382.59
382.4
382.56
382.63
382.57
382.63
382.58
382.62
382.78
382.85
382.79
382.84
383
383.07
383.01
383.27
383.45
383.3
383.22
383.5
383.47
383.49
383.47
383.49
383.68
383.51
383.65
383.74
383.46
383.7
383.7
383.91
383.94
383.91
384.14
384.14
384.14
384.14
384.15
384.14
384.35
384.17
384.33
384.4
384.54
384.42
384.52
384.44
384.5
384.66
384.51
384.86
384.76
384.85
384.77
385.05
385.02
384.83
384.99
385.06
385.21
385.08
385.19
385.1
385.17
385.32
385.4
385.55
385.62
385.35
385.57
385.6
385.36
385.79
385.62
385.77
385.64
385.96
385.89
385.95
386.11
385.96
386.09
386.19
386.11
386.18
386.12
386.37
386.37
386.36
386.38
386.57
386.62
386.56
386.83
386.8
386.84
386.59
387.02
387.06
386.82
386.81
387.03
387.05
387.04
387.04
387.25
387.07
387.23
387.3
387.24
387.5
387.48
387.5
387.49
387.49
387.7
387.52
387.68
387.75
387.69
387.74
387.69
387.95
387.94
387.94
387.94
387.94
388.16
388.18
388.16
388.18
388.16
388.17
388.38
388.41
388.17
388.38
388.62
388.62
388.41
388.59
388.65
388.59
388.86
388.84
388.86
388.84
389.07
389.08
389.07
389.08
389.07
389.08
389.07
389.29
389.1
389.26
389.34
389.48
389.57
389.28
389.54
389.53
389.74
389.56
389.71
389.8
389.72
389.79
389.93
390.03
389.73
390
389.97
390.21
390.22
390.21
390.22
390.42
390.46
390.43
390.24
390.4
390.69
390.65
390.48
390.62
390.5
390.81
390.77
390.58
390.75
390.81
390.98
390.83
390.97
390.84
390.95
391.07
391.19
391.08
391.17
391.09
391.16
391.31
391.18
391.3
391.42
391.52
391.43
391.29
391.42
391.52
391.65
391.54
391.63
391.76
391.65
391.75
391.88
391.76
391.87
391.78
391.85
392.01
391.87
391.99
391.89
391.97
392.12
391.99
392.1
392.01
392.09
392.23
392.32
392.46
392.34
392.23
392.32
392.46
392.34
392.44
392.35
392.43
392.37
392.42
392.81
392.69
392.58
392.67
392.8
392.69
392.79
392.7
392.99
392.96
392.98
392.98
392.75
393.17
393.02
393.15
393.04
393.13
393.27
393.15
393.47
393.41
393.46
393.42
393.23
393.4
393.47
393.41
393.46
393.64
393.48
393.62
393.72
393.63
393.49
393.61
393.94
393.87
393.71
393.63
393.7
393.86
393.94
393.87
393.93
394.1
393.95
393.86
394.16
394.12
394.15
394.12
394.36
394.38
394.14
394.35
394.38
394.36
394.38
394.36
394.16
394.55
394.43
394.31
394.64
394.57
394.41
394.55
394.65
394.78
394.67
394.76
394.69
394.74
394.71
394.72
394.94
394.96
394.95
394.73
395.15
395
395.13
395.02
395.12
395.25
395.14
395.01
395.34
395.28
395.33
395.29
395.54
395.33
395.06
395.3
395.53
395.55
395.3
395.31
395.3
395.53
395.54
395.54
395.54
395.76
395.57
395.51
395.56
395.74
395.58
395.72
395.82
395.95
395.84
395.71
395.83
395.94
395.85
395.71
395.83
395.94
396.07
395.95
396.06
395.97
396.04
395.98
396.03
396.21
396.06
396.19
396.08
396.17
396.09
395.93
396.29
396.2
396.06
396.18
396.08
396.16
396.31
396.18
396.3
396.2
396.28
396.21
396.27
396.44
396.07
396.17
396.31
396.19
396.07
395.95
396.06
396.18
396.08
395.95
396.06
395.75
395.79
395.76
395.78
395.77
395.56
395.74
395.58
395.5
395.57
395.52
395.56
395.52
395.11
395.25
395.13
395.23
394.93
394.53
394.66
394.77
394.46
394.5
394.26
394.24
394.05
393.99
394.05
393.55
393.77
393.36
393.5
393.38
393.05
392.9
393.25
392.74
392.53
392.29
392.27
392.3
391.83
391.81
391.61
391.57
391.38
391.13
391.13
390.92
390.45
390.44
390.23
390.2
389.8
389.51
389.33
389.28
389.11
388.83
388.65
388.6
388.22
387.91
387.97
387.71
387.51
387.27
386.84
387
386.66
386.33
386.41
386.13
385.74
385.45
385.5
385.25
384.84
384.78
384.62
384.34
384.17
383.91
383.73
383.68
383.31
383.01
382.86
382.58
382.41
382.15
381.77
381.69
381.55
381.26
381.11
380.83
380.67
380.6
380.46
379.98
379.99
379.78
379.55
379.55
379.15
379.09
378.94
378.67
378.5
378.45
378.3
378.22
377.89
377.57
377.45
377.36
377.24
376.94
376.81
376.72
376.4
376.47
376.22
375.84
375.78
375.82
375.79
375.42
375.35
375.21
375.14
374.8
374.7
374.59
374.5
374.18
374.06
374.17
374.08
373.76
373.64
373.55
373.63
373.37
373.2
373.35
373.02
372.92
372.82
372.71
372.8
372.53
372.37
372.32
372.36
372.33
371.97
372.09
371.98
371.69
371.55
371.48
371.54
371.3
371.12
371.09
371.11
371.09
370.72
370.85
370.73
370.45
370.31
370.24
370.3
370.45
370.13
370.02
370.11
369.84
369.69
369.63
369.68
369.64
369.48
369.43
369.47
369.44
369.27
369.23
369.08
369.21
369.09
369
369.08
369.01
368.88
368.8
368.87
368.81
368.67
368.79
368.69
368.59
368.49
368.38
368.48
368.39
368.09
368.16
368.29
368.17
368.09
367.97
368.26
368.01
368.04
368.02
368.03
368.02
367.84
367.81
368.02
368.03
367.83
368.01
368.04
367.83
367.82
368.02
367.84
367.62
367.81
368.03
368.02
368.03
367.83
367.81
367.83
368.01
367.85
367.79
368.04
368.02
367.84
367.99
367.87
368.16
367.91
367.93
367.93
367.92
367.94
367.72
368.11
367.76
367.88
367.96
368.08
367.79
367.85
367.61
368.01
368.05
367.82
367.64
367.78
367.86
367.79
367.86
367.79
367.86
367.79
367.85
367.79
368.04
367.82
367.82
367.82
367.83
367.82
367.83
367.82
367.64
367.6
367.83
367.82
367.83
367.82
367.83
367.82
367.83
367.63
367.8
367.85
367.8
367.84
367.8
367.84
367.81
367.84
367.81
367.83
368
368.05
368
368.05
368.01
368.04
368.2
368.07
368.18
368.28
368.18
368.27
368.19
368.45
368.41
368.45
368.42
368.44
368.42
368.63
368.64
368.63
368.64
368.63
368.83
368.66
368.81
368.68
368.79
368.89
368.8
368.88
368.99
368.9
368.98
369.11
368.8
368.88
369
369.28
369.03
369.05
369.04
369.24
369.26
369.24
369.26
369.24
369.26
369.23
369.26
369.23
369.45
369.26
369.43
369.47
369.43
369.47
369.63
369.49
369.61
369.51
369.4
369.69
369.63
369.68
369.64
369.68
369.45
369.65
369.86
370.05
369.89
369.83
369.7
370
369.94
369.79
370.13
370.02
370.12
369.83
370.08
370.05
369.89
369.84
370.08
370.06
370.08
369.87
370.05
370.28
370.08
370.06
370.26
370.28
370.26
370.28
370.46
370.31
370.24
370.5
370.46
370.5
370.66
370.52
370.44
370.71
370.47
370.49
370.47
370.49
370.48
370.48
370.67
370.51
370.45
370.7
370.67
370.7
370.87
370.72
370.84
370.94
370.85
370.74
370.83
371.14
371.06
370.94
370.85
371.32
371.29
371.12
371.27
371.34
371.28
371.33
371.28
371.52
371.32
371.49
371.73
371.71
371.54
371.68
371.76
371.68
371.95
371.71
371.92
371.93
371.92
372.13
372.14
372.12
372.15
372.12
372.34
372.15
372.31
372.37
372.32
372.36
372.32
372.36
372.52
372.58
372.72
372.79
372.53
372.76
372.76
372.95
372.79
372.92
373.01
372.93
373
373.13
373.22
373.13
373.22
373.33
373.43
373.34
373.43
373.35
373.61
373.58
373.61
373.58
373.8
374
373.83
373.78
374.02
374.01
373.82
373.99
374.04
374.19
374.06
373.97
374.05
374.17
374.27
374.18
374.26
374.39
374.47
374.4
374.66
374.63
374.65
374.64
374.65
374.84
374.87
375.04
374.89
375.02
374.91
375
375.12
375.02
374.91
375
375.13
375.21
375.14
375.39
375.38
375.38
375.39
375.38
375.79
375.62
375.57
375.42
375.75
375.66
375.73
375.87
375.95
375.88
375.74
375.87
375.95
376.08
376.16
376.09
376.15
376.3
376.17
376.29
376.18
376.47
376.42
376.26
376.6
376.51
376.58
376.92
376.63
376.68
376.84
376.7
376.82
376.71
376.8
376.93
377.01
376.94
377
376.95
376.99
377.16
377.21
377.17
377
377.35
377.24
377.34
377.46
377.35
377.44
377.37
377.63
377.81
377.45
377.56
377.66
377.77
377.88
377.79
377.87
378
377.88
377.98
377.9
378.17
378.14
377.96
378.12
378.37
378.36
378.17
378.34
378.59
378.58
378.38
378.56
378.6
378.57
378.59
378.98
378.84
378.76
378.83
378.97
379.05
378.98
379.04
379.19
379.26
379.2
379.25
379.41
379.27
379.39
379.29
379.37
379.5
379.59
379.52
379.78
379.76
379.77
379.77
379.76
379.98
379.78
379.96
380
379.97
379.99
380.18
380.21
380.19
380
380.17
380.43
380.41
380.22
380.39
380.64
380.63
380.43
380.6
380.66
380.61
380.45
380.59
380.67
380.8
380.69
380.78
380.71
380.77
380.72
380.96
381.17
380.57
380.89
380.82
381.08
381.06
380.87
381.04
381.1
381.04
381.09
381.26
381.31
381.26
381.31
381.27
381.3
381.28
381.29
381.49
381.52
381.69
381.54
381.47
381.33
380.84
380.66
380.82
380.88
380.62
380.84
381.06
381.07
381.27
381.1
381.24
381.32
381.46
381.35
381.23
381.34
381.45
381.35
381.43
381.57
381.44
381.56
381.45
381.55
381.67
381.57
381.45
381.76
381.69
381.75
381.9
381.97
382.12
381.99
382.1
382.22
382.11
382.2
382.12
382.19
382.13
382.18
382.35
382.41
382.56
382.43
382.34
382.42
382.55
382.44
382.54
382.45
382.72
382.7
382.71
382.91
382.73
382.89
382.75
383.08
383
383.07
383.02
383.06
383.23
383.08
383.21
383.09
383.2
383.31
383.21
383.09
383.61
383.37
383.36
383.58
383.39
383.56
383.41
383.75
383.66
383.53
383.65
383.75
383.87
383.76
383.85
384.18
384.11
383.97
383.88
384.16
384.13
383.94
384.11
384.17
384.13
384.15
384.34
384.38
384.35
384.16
384.33
384.39
384.55
384.41
384.53
384.63
384.55
384.62
384.56
384.61
384.77
384.63
384.75
384.85
384.97
384.87
384.75
384.86
384.97
384.87
384.75
385.07
385
385.05
385.22
385.08
385.2
385.3
385.21
385.29
385.22
385.28
385.44
385.51
385.24
385.26
385.45
385.49
385.67
385.52
385.65
385.54
385.63
385.55
385.61
385.78
385.84
385.79
385.62
385.77
385.84
385.79
385.83
385.8
385.82
386.02
385.84
386.21
385.88
385.95
386.1
386.18
386.12
386.17
386.34
386.4
386.35
386.18
386.33
386.4
386.34
386.39
386.56
386.62
386.57
386.4
386.55
386.63
386.56
386.62
386.78
386.85
386.79
386.84
386.8
387.04
387.05
386.83
386.81
387.03
386.85
387
387.09
387
387.08
387
387.29
387.24
387.29
387.03
387.26
387.27
387.05
387.03
387.26
387.48
387.5
387.27
387.26
387.27
387.47
387.51
387.48
387.51
387.48
387.5
387.48
387.5
387.48
387.5
387.69
387.53
387.67
387.76
387.46
387.94
387.74
387.7
387.74
387.7
387.94
387.73
387.91
387.97
387.92
387.76
387.68
387.96
387.92
387.96
388.14
388.2
388.14
387.98
387.9
388.19
388.15
388.18
388.15
388.18
388.37
388.21
388.34
388.44
388.35
388.23
388.33
388.46
388.34
388.45
388.56
388.68
388.57
388.67
388.37
388.63
388.62
388.62
388.41
388.59
388.86
388.83
388.65
388.8
388.68
388.56
388.89
388.81
388.88
388.81
388.67
388.79
389.12
388.82
388.87
389.04
389.11
389.04
389.11
389.05
388.89
389.02
389.13
389.03
389.12
389.04
389.11
389.04
389.32
389.08
389.07
389.29
389.31
389.08
389.28
389.33
389.28
389.32
389.28
389.32
389.28
389.32
389.28
389.53
389.31
389.5
389.55
389.51
389.55
389.51
389.54
389.52
389.54
389.52
389.54
389.52
389.53
389.53
389.53
389.53
389.53
389.53
389.53
389.53
389.53
389.53
389.53
389.53
389.74
389.56
389.5
389.56
389.5
389.56
389.5
389.55
389.51
389.34
389.27
389.33
389.48
389.36
389.46
389.38
389.23
389.37
389.24
389.36
389.46
389.38
389.44
389.39
389.22
389.38
389.44
389.39
389.22
389.38
389.24
389.36
389.25
389.56
389.51
389.55
389.52
389.33
389.49
389.56
389.51
389.55
389.3
389.51
389.55
389.5
389.56
389.5
389.56
389.5
389.56
389.71
389.8
389.5
389.56
389.5
389.77
389.53
389.53
389.53
389.53
389.74
389.78
389.74
389.78
389.74
389.78
389.74
389.99
389.77
389.96
389.8
389.72
389.79
389.73
390
389.76
389.96
390.01
389.96
390
389.97
390
389.97
390.21
390
389.97
390
389.97
390
390.18
390.24
390.19
390.02
390.16
390.26
390.17
390.26
390.17
390.25
390.18
390.25
390.4
390.48
390.4
390.48
390.41
390.47
390.42
390.47
390.42
390.67
390.46
390.64
390.49
390.4
390.69
390.65
390.48
390.62
390.72
390.63
390.5
390.6
390.73
390.61
390.94
390.87
390.93
390.87
390.71
390.85
390.95
390.86
390.94
390.87
390.93
391.09
390.95
390.85
390.73
391.05
391.21
391.06
391.4
391.11
391.15
391.11
391.36
391.36
391.14
391.34
391.59
391.59
391.37
391.35
391.58
391.6
391.36
391.57
391.39
391.55
391.63
391.56
391.83
391.81
391.61
391.78
391.85
391.79
391.63
391.56
391.83
392.02
391.86
391.79
392.06
391.83
391.81
391.83
391.81
392.05
391.84
391.8
391.83
392.02
391.86
392
392.09
392.01
392.08
392.02
392.29
392.27
391.86
392
392.09
392.23
392.11
392.21
392.35
392.22
392.12
392.2
392.14
392.18
392.15
391.96
392.35
392.22
392.12
392.2
392.35
392.43
392.36
392.2
392.56
392.25
392.3
392.26
392.51
392.3
392.25
392.31
392.04
392.28
392.28
392.5
392.52
392.29
392.27
392.51
392.3
392.48
392.32
392.25
392.52
392.29
392.06
392.04
392.05
392.26
392.08
392.24
392.32
392.25
392.09
392.22
392.33
392.24
391.89
391.97
392.12
391.98
392.11
392
392.09
392.01
391.87
391.99
392.1
392
391.88
391.77
391.86
391.99
391.88
391.76
391.66
391.96
391.92
391.73
391.68
391.72
391.7
391.71
391.92
391.73
391.68
391.5
391.88
391.77
391.65
391.54
390.99
390.18
389.6
389.47
389.58
389.48
389.36
389.26
389.34
389.48
389.36
389.25
389.34
389.48
389.36
389.25
389.34
389.27
389.33
389.28
389.31
389.08
389.06
389.09
389.27
389.34
389.05
389.1
389.05
389.31
389.08
389.07
388.86
389.05
388.89
389.03
388.91
389.01
388.92
388.78
389.12
389.03
388.9
388.8
388.89
389.02
388.91
389.01
388.93
388.78
388.91
388.79
389.11
389.05
388.68
388.78
388.91
388.8
388.68
388.78
388.7
388.76
388.71
388.75
388.73
388.74
388.74
388.73
388.96
388.54
388.69
388.56
388.67
388.79
388.69
388.56
388.67
388.58
388.45
388.77
388.7
388.55
388.47
388.54
388.7
388.56
388.47
388.54
388.69
388.77
388.49
388.52
388.71
388.54
388.48
388.53
388.49
388.53
388.49
388.31
388.47
388.54
388.48
388.32
388.67
388.58
388.44
388.36
388.64
388.61
388.41
388.59
388.64
388.4
388.39
388.62
388.62
388.63
388.4
388.39
388.6
388.64
388.39
388.4
388.59
388.65
388.38
388.62
388.62
388.63
388.61
388.84
388.85
388.85
388.85
388.85
389.06
389.09
388.84
389.06
389.08
389.28
388.9
389.01
389.13
388.81
388.88
389.03
389.12
389.04
388.9
389.01
389.13
389.02
388.91
389
389.14
388.8
389.1
389.05
389.09
389.06
388.88
389.03
389.11
389.04
389.11
389.05
389.1
389.26
389.12
389.03
389.33
389.49
389.35
389.47
389.8
389.93
389.82
389.91
390.26
390.59
390.74
390.82
390.97
391.05
391.2
391.28
391.43
391.29
391.63
392.41
393.46
393.63
393.92
394.11
394.16
394.12
394.15
394.34
394.39
394.57
394.63
394.58
394.84
394.84
394.61
394.81
394.86
394.82
394.85
394.61
394.81
394.86
394.59
394.83
394.84
394.84
394.62
394.81
394.64
394.57
394.85
394.82
394.84
394.61
394.59
394.83
394.84
394.62
394.58
394.84
394.83
394.62
394.58
394.62
394.8
394.87
394.59
394.62
394.59
394.84
394.62
394.8
394.65
394.56
394.42
394.54
394.66
394.33
394.4
394.55
394.43
394.53
394.45
394.29
394.44
394.3
394.43
394.32
394.63
394.57
394.41
394.55
394.65
394.34
394.39
394.57
394.63
394.57
394.41
394.55
394.65
394.78
394.67
394.54
394.66
394.77
394.68
394.54
394.44
394.52
394.68
394.54
394.66
394.55
394.65
394.78
394.88
394.79
394.65
394.56
394.86
394.82
394.63
394.8
394.87
395.02
394.89
394.79
395.09
394.83
394.84
395.06
394.86
395.03
394.88
395.01
394.9
394.99
394.92
394.98
394.93
394.75
394.91
394.99
395.14
395.22
394.94
394.96
395.38
395.23
395.15
395.22
395.38
395.46
395.17
395.2
395.4
395.22
395.38
395.46
395.39
395.23
395.37
395.47
395.6
395.49
395.58
395.51
395.56
395.74
395.58
395.5
395.57
395.74
395.8
395.53
395.54
395.76
395.56
395.74
395.58
395.72
395.82
395.74
395.8
395.53
395.76
396.01
395.79
395.76
395.78
395.77
395.77
395.78
395.77
395.78
395.54
395.76
395.79
395.76
395.78
395.55
395.74
395.8
395.74
395.8
395.75
395.8
395.75
395.8
395.75
395.79
395.97
396.04
395.98
396.04
395.98
396.03
395.99
396.03
396.21
396.06
395.96
396.27
396.22
396.26
396.01
396.22
396.04
396.19
396.29
396.2
396.29
396.2
396.29
396.2
396.28
396.21
396.28
396.43
396.53
396.43
396.52
396.66
396.55
396.42
396.54
396.64
396.56
396.4
396.55
396.63
396.79
396.65
396.78
396.66
396.77
396.67
396.54
396.64
396.78
396.88
396.8
396.64
396.78
396.66
396.77
396.67
396.76
396.9
397
396.91
396.98
396.93
396.97
396.94
396.96
396.94
396.95
396.95
396.95
396.96
396.94
396.96
397.16
397.22
396.93
397.19
397.18
397.2
397.18
397.2
397.17
397.42
397.2
397.18
397.2
397.4
397.22
397.38
397.47
397.17
397.42
397.43
397.42
397.21
397.38
397.68
397.64
397.68
397.64
397.68
397.64
397.68
397.64
397.68
397.64
397.68
397.64
397.68
397.87
397.93
397.65
397.89
397.9
397.67
397.87
397.7
397.84
398.17
397.66
397.88
397.92
398.1
397.95
397.85
398.16
398.11
397.94
397.86
398.16
398.12
397.93
398.09
398.18
397.87
398.37
398.16
398.11
398.16
398.12
398.37
398.15
398.12
398.37
398.15
398.34
398.4
398.13
398.14
398.13
398.36
398.39
398.36
398.16
398.33
398.19
398.08
398.19
398.09
398.4
398.13
398.15
398.13
398.37
398.16
398.11
398.38
398.15
398.13
398.37
398.16
398.34
398.19
398.31
398.21
398.29
398.23
398.05
398.44
398.31
398.43
398.1
398.17
398.33
398.19
398.31
398.21
398.29
398.23
398.05
398.22
398.07
398.2
398.08
398.19
398.09
398.18
398.1
398.16
398.11
398.16
398.12
398.15
398.13
398.14
398.14
398.14
398.36
397.94
398.08
398.18
398.1
397.95
397.85
398.16
398.12
397.93
397.87
397.7
397.85
397.94
397.64
397.68
397.87
397.7
397.85
397.72
397.83
397.74
397.59
397.73
397.83
397.74
397.59
397.72
397.83
397.74
397.59
397.72
397.61
397.49
397.59
397.72
397.61
397.71
397.62
397.69
397.64
397.68
397.65
397.67
397.66
397.44
397.63
397.69
397.64
397.68
397.43
397.64
397.69
397.41
397.66
397.66
397.67
397.44
397.42
397.65
397.67
397.43
397.42
397.2
397.62
397.48
397.37
397.69
397.64
397.46
397.39
397.45
397.62
397.48
397.38
397.47
397.61
397.49
397.37
397.7
397.41
397.44
397.41
397.43
397.64
397.46
397.39
397.45
397.62
397.26
397.57
397.31
397.52
397.57
397.29
397.55
397.31
397.3
397.3
397.31
397.29
397.54
397.32
397.52
397.34
397.5
397.36
397.48
397.6
397.28
397.33
397.51
397.13
397.46
397.4
397.22
397.38
397.46
397.4
397.45
397.63
397.47
397.39
397.67
397.44
397.41
397.66
397.43
397.64
397.46
397.4
397.67
397.66
397.44
397.64
397.68
397.43
397.64
397.69
397.64
397.69
397.41
397.66
397.66
397.66
397.44
397.64
397.68
397.64
397.68
397.65
397.67
397.65
397.45
397.63
397.69
397.64
397.46
397.61
397.71
397.62
397.48
397.38
397.47
397.17
397.21
397.39
397.45
397.4
397.23
397.37
397.25
397.35
397.05
397.08
397.06
396.85
396.83
396.4
395.46
394.94
394.75
394.68
394.54
394.43
394.76
394.46
394.73
394.49
394.48
394.27
394.68
394.54
394.44
394.52
394.67
393.89
393.69
393.66
393.46
393.64
393.48
393.4
393.46
393.42
393.45
393.43
393.44
393.22
393.4
393.48
393.61
393.51
393.37
393.51
393.58
393.75
393.37
393.5
393.38
393.71
393.63
393.49
393.38
393.27
393.14
393.48
393.4
393.48
393.19
393.44
393.65
393.47
393.19
393.43
393.22
393.4
393.25
392.94
393.43
393.44
393.22
393.19
393.22
393.19
393.22
393.41
393.46
393.41
393.25
393.38
393.49
393.6
393.3
393.33
393.75
393.59
393.52
393.57
393.76
393.8
393.99
394.04
394.23
394.49
394.49
394.47
394.72
394.49
394.7
394.73
394.93
394.75
394.91
394.77
395.11
394.81
394.85
395.04
394.87
395.02
395.11
395.25
395.13
395.45
395.61
395.69
395.63
395.68
395.86
396.14
396.34
395.94
396.29
396.21
396.49
396.47
396.48
396.7
396.72
396.71
396.71
396.72
396.92
396.98
396.7
396.95
396.94
397.18
396.97
397.16
397.21
397.17
397.42
397.43
397.42
397.44
397.41
397.66
397.66
397.67
397.65
397.67
397.65
397.9
397.68
397.87
397.93
397.88
397.92
397.88
398.13
397.92
397.88
398.14
398.13
397.92
397.88
398.14
397.91
398.11
397.94
398.09
