680.76
680.53
680.76
680.53
681.4
680.63
681.3
681.37
681.31
681.36
680.68
681.25
680.77
681.17
681.5
681.18
681.49
681.2
680.82
681.12
680.89
681.06
681.6
681.1
681.56
681.13
682.17
681.91
681.5
681.84
681.56
681.78
682.27
681.18
682.13
681.95
682.1
681.98
681.43
681.91
682.15
681.94
682.12
681.97
682.09
681.99
681.42
681.92
682.13
681.95
682.1
681.98
682.73
682.1
681.97
682.11
681.96
682.76
682.05
682.03
682.03
682.7
682.76
682.07
682.65
682.82
682
682.73
682.08
682.65
682.81
682.67
682.79
682.69
682.77
683.36
682.85
683.29
683.57
683.32
684.19
683.44
683.42
683.45
683.41
684.11
683.5
684.03
684.23
684.06
684.2
683.42
684.09
684.18
683.44
684.09
683.52
684.01
684.25
684.03
684.88
684.15
684.12
684.15
684.12
684.16
684.11
684.16
684.77
683.6
683.93
684.98
684.05
684.87
684.16
684.77
684.9
684.12
684.8
684.87
684.81
684.87
684.16
684.76
684.91
684.77
684.9
684.78
684.89
684.78
684.89
684.79
684.88
684.8
684.88
684.8
684.87
684.8
684.87
684.81
684.87
684.81
684.87
684.81
685.52
684.91
684.77
684.9
685.44
685.64
684.8
685.53
684.9
684.78
685.55
685.53
685.55
685.53
685.55
685.53
685.56
685.53
685.56
685.53
686.21
684.97
685.37
685.7
685.4
686.33
685.52
686.22
686.28
686.22
685.62
685.47
686.27
686.23
685.61
686.13
686.36
686.15
686.34
685.5
686.89
686.35
686.15
687
686.26
686.9
687.01
686.25
686.91
687
686.91
687
686.92
686.99
686.92
686.99
686.93
686.32
687.5
687.82
686.86
687.7
686.97
686.94
686.97
687.6
687.72
686.95
687.62
687.7
686.97
688.26
687.82
687.52
687.8
687.54
687.78
686.9
688.33
687.76
687.57
688.41
687.68
687.65
688.34
687.75
688.25
687.83
687.51
687.81
687.53
688.45
688.3
688.44
688.32
687.76
688.23
688.5
688.92
688.58
688.19
689.21
688.31
688.42
688.33
688.41
689.01
688.49
688.27
689.13
689.05
689.12
689.06
688.44
688.98
688.52
688.91
689.25
688.94
689.22
688.97
689.19
689.66
689.26
689.6
689.32
689.54
689.37
688.83
689.98
689.64
689.27
689.59
689.32
688.87
689.27
688.92
689.89
689.06
689.1
689.75
689.83
689.78
689.14
689.7
689.87
689.74
689.84
689.76
690.48
690.55
689.8
690.47
689.88
690.39
690.61
689.76
690.49
690.55
689.81
690.46
689.89
690.39
690.62
690.42
690.59
690.45
690.57
690.47
690.55
691.15
690.62
690.42
691.26
690.54
691.15
690.64
690.39
691.3
690.49
691.2
691.25
691.21
691.24
691.22
691.23
691.23
691.23
691.23
691.22
691.9
691.32
691.15
691.97
691.26
691.2
691.92
691.3
691.83
691.38
691.75
692.12
691.78
692.1
691.14
691.98
691.92
691.3
691.83
692.05
691.85
692.03
691.87
692.02
691.88
691.34
691.8
692.08
692.49
692.15
691.75
692.79
691.88
692
691.9
691.99
692.58
691.4
691.74
692.13
691.77
692.1
691.81
692.07
692.5
691.47
691.68
692.86
691.82
692.72
691.95
692.61
692.73
692.6
693.4
692.69
693.31
692.77
692.57
693.41
692.69
692.63
693.37
693.39
694.06
692.81
693.21
694.21
694.01
693.52
693.27
693.49
693.97
692.89
693.81
693.71
693.09
693.65
693.15
693.6
693.87
693.65
693.82
694.36
693.88
693.63
693.17
694.25
693.99
694.21
694.02
694.17
694.73
694.24
694
694.2
694.03
694.16
694.07
694.13
694.77
694.21
694.03
693.5
693.96
694.23
694
694.87
694.8
694.17
694.73
694.24
694.67
694.3
693.94
694.93
694.75
694.9
694.78
694.87
695.48
694.27
695.31
695.77
694.69
694.95
694.73
694.92
695.43
694.98
695.37
695.04
695.32
695.77
694.69
695.62
695.5
694.92
695.43
695.66
695.46
695.63
695.49
696.28
695.62
695.49
695.62
695.49
696.3
695.58
695.54
695.57
696.23
696.33
696.24
696.31
696.26
695.62
696.85
696.48
696.11
696.44
696.14
697.09
696.94
696.39
696.19
696.37
696.89
696.44
696.14
697.09
696.26
696.29
696.95
696.38
696.87
696.46
696.12
697.1
696.25
696.98
696.36
696.88
697.14
696.21
697.03
696.99
697.03
696.99
696.36
696.89
697.12
696.22
697.01
697
697.01
696.33
696.91
697.1
696.93
697.08
696.94
696.4
697.53
696.57
696.69
697.31
696.74
697.26
696.78
697.9
696.92
697.09
697.62
697.85
697.64
697.82
697.67
698.48
697.78
697.69
698.47
697.79
698.38
697.87
698.3
698.62
698.34
698.59
698.37
698.56
698.39
698.54
698.41
699.2
698.53
698.41
698.54
698.4
699.22
698.5
698.45
699.17
699.24
699.16
699.24
699.16
699.25
698.48
699.15
699.25
699.16
698.56
699.08
699.32
699.1
699.29
699.12
699.27
699.14
699.26
699.84
699.34
699.08
699.31
699.1
699.97
699.91
699.28
699.82
700.04
699.16
699.92
699.27
699.82
700.05
699.14
699.95
699.92
699.95
699.92
699.95
700.6
700.74
700.61
700.73
700.61
700.73
700.62
700.72
700.63
700.72
700.63
696.46
695.78
696.61
695.44
696.48
695.98
696.01
695.77
695.99
696
696.2
695.4
696.09
695.92
696.05
695.95
695.61
696.13
696.08
695.93
696.25
696.2
696.63
696.49
696.38
696.71
696.19
696.66
696.44
696.44
696.63
696.28
696.55
696.97
696.17
696.68
696.43
696.86
696.48
696.41
696.66
696.86
696.89
697.08
696.7
697.45
697.22
697
697.4
697.25
697.38
697.27
697.36
697.7
697.41
697.45
697.63
697.68
697.84
697.49
697.8
697.95
697.4
697.87
697.89
698.07
698.13
697.65
698.28
698.15
698.06
697.93
698.04
698.56
698.32
698.11
698.51
698.36
698.49
698.17
698.45
698.83
698.09
698.52
698.57
698.51
698.78
698.33
698.73
698.79
698.33
698.93
698.84
698.9
698.66
698.43
699.27
698.74
699
698.77
698.56
698.94
698.82
698.71
698.82
698.71
699.23
698.99
699.2
699.43
699.23
699.19
699.02
699.17
699.46
699
699.39
699.26
699.16
699.47
699.2
699.43
699.43
699.23
699.61
699.29
699.14
699.69
699.62
699.9
699.86
699.68
700.25
699.98
700.2
700.03
700.16
700.69
700.21
700.64
700.47
700.21
700.63
700.49
700.8
700.97
700.59
701.15
700.44
700.65
700.88
700.69
700.64
700.69
700.84
701.14
700.66
701.29
700.54
700.97
701.24
700.99
701.42
701.05
701.17
701.48
701.21
701.43
701.05
701.37
701.73
701.19
701.67
701.45
701.65
701.89
701.69
701.86
701.93
701.65
702.11
701.7
701.85
702.14
701.89
702.1
701.93
702.07
702.59
701.92
702.29
702.18
702.27
702.62
701.9
702.52
702.83
702.55
702.8
702.37
702.74
702.84
702.54
702.8
702.58
702.77
702.82
702.56
703
702.83
702.98
703.06
702.56
702.99
703.05
702.99
703.25
702.82
703.4
703.11
703.14
703.76
703.22
703.48
703.47
703.47
703.68
703.5
703.65
703.53
703.42
703.73
703.46
703.69
703.7
703.48
704.09
703.78
703.83
704.01
703.84
704.41
704.13
704.17
704.34
703.98
704.5
704.27
704.24
704.49
704.26
704.47
704.28
704.45
704.72
704.5
704.68
704.96
704.5
704.9
704.55
705.07
705.04
704.85
705.44
704.93
705.16
705.39
704.97
705.54
704.84
705.23
705.33
705.02
705.73
705.31
705.67
705.79
705.48
705.53
705.49
705.73
706.16
705.78
706.11
706.04
705.89
706.24
705.72
706.16
706.22
706.16
706.22
705.94
706.4
706.42
706.2
706.6
706.47
706.57
706.71
706.36
706.89
706.85
706.68
706.82
706.49
706.98
707
706.96
707.65
707.04
707.36
707.29
707.14
707.69
707.02
707.16
707.48
707.4
707.7
707.43
708.1
707.94
707.65
708.1
708.15
707.89
708.12
707.7
708.49
708.24
708.02
708.43
708.07
708.39
708.11
708.13
708.76
708.43
708.28
708.21
708.05
708.62
708.34
708.37
708.77
708.42
708.5
708.23
708.24
708.88
708.32
708.81
708.81
708.6
708.78
708.41
709.15
708.95
708.68
709.14
708.95
709.34
708.99
708.66
709.58
709.22
709.09
709.22
709.09
709.65
708.94
709.56
709.66
709.36
709.61
709.62
709.82
710.08
709.42
709.99
709.93
710.19
709.97
709.72
710.38
710.02
709.9
710.22
710.17
710.42
710.21
709.95
710.61
710.25
710.35
710.48
710.15
710.64
710.23
710.36
710.69
710.39
710.88
710.45
711.04
710.96
710.59
710.91
710.85
710.9
711.08
710.92
711.27
711.18
711.04
711.38
710.88
711.31
711.16
711.06
711.8
711.15
711.29
711.39
711.3
711.8
711.37
711.52
711.83
711.55
711.8
711.37
711.96
712.1
711.54
711.81
711.79
712.02
712.04
711.8
712.45
712.32
711.99
712.28
712.46
712.52
712.26
712.27
712.69
712.54
712.67
712.78
712.89
713.02
712.69
712.97
713.16
713
713.35
713.05
713.52
713.78
713.32
713.73
713.8
713.96
714.03
713.76
714.42
714.3
713.95
714.7
714.48
714.68
714.28
714.41
714.51
714.64
714.75
714.66
714.3
715.04
714.63
714.76
715.31
714.6
715.22
715.12
714.99
715.32
715.03
715.5
715.32
714.81
715.26
714.87
715.64
715.63
715.2
715.79
715.28
715.72
715.56
715.25
715.97
715.56
715.7
715.58
715.46
716
715.54
715.71
715.79
715.71
716.01
715.74
716.19
715.58
715.67
716.25
715.97
715.99
716.19
715.8
716.35
715.88
715.84
716.33
716.11
716.31
716.13
716.07
716.34
716.12
716.08
716.34
715.89
716.72
716.22
716.43
716.69
716.46
716.88
716.29
716.58
716.99
716.42
716.91
716.93
716.69
717.12
716.96
717.54
717.26
717.05
717.46
717.32
717.22
717.31
717.46
717.98
717.75
717.5
717.73
717.75
717.95
717.55
717.9
718.26
717.95
718.21
717.99
718.39
718.49
717.96
718.43
718.24
718.4
718.48
718.19
718.88
718.73
718.19
718.89
718.28
718.8
718.58
718.54
718.81
718.78
719.04
719.02
718.83
719.64
718.96
718.86
719.2
719.09
719.65
718.92
719.8
719.91
719.6
719.63
719.62
719.83
720.33
719.66
720.47
719.99
719.96
720.21
720.44
720.68
720.47
720.43
721.12
720.75
720.84
721
720.63
721.18
720.7
720.9
721.39
720.96
721.32
721.02
721.27
721.08
720.78
721.5
721.3
721.49
721.31
721.25
721.74
721.56
721.25
721.97
721.78
721.96
721.79
721.72
722.44
722.05
721.92
722.28
721.95
722.69
722.05
722.39
722.54
721.96
722.46
722.48
722.45
722.93
722.29
722.84
722.81
722.61
723.01
722.66
723.41
723.21
722.93
723.4
723.21
723.6
723.27
723.33
723.73
723.37
723.46
723.61
723.26
723.77
723.56
723.51
724.02
723.34
723.93
723.42
723.86
723.93
723.41
724.31
723.98
724.04
724.22
723.83
724.4
724.13
724.14
724.8
724.45
724.53
724.69
724.54
725.12
724.4
724.8
725.13
724.83
725.32
724.68
725.23
725.43
725.02
725.16
725.03
725.37
725.52
724.95
725.44
725.7
725.91
725.74
725.2
726.12
725.99
725.66
725.94
725.93
726.15
726.19
725.93
726.39
726.21
726.37
726.23
726.35
726.47
726.36
726.68
726.86
726.48
726.8
726.75
727.01
727.02
726.56
726.97
726.83
726.95
727.07
726.97
727.28
727.24
727.04
727.44
727.32
727.43
727.33
727.41
728.02
727.28
727.68
728.02
727.71
728.22
727.54
727.91
728.27
727.96
728.22
728
728.41
728.74
727.99
728.42
728.5
728.43
728.49
728.22
728.45
728.48
728.22
728.9
728.76
728.65
728.52
728.63
729.22
728.94
728.73
728.91
729.2
729.4
728.78
729.09
729.51
729.36
729.49
729.15
729.22
729.61
729.28
729.56
729.33
729.29
729.79
729.34
729.74
729.85
729.75
730.05
729.8
730.01
730.3
730.04
730.72
730.35
730.45
730.37
730.21
730.8
730.52
730.53
730.98
730.59
731.15
730.89
730.88
731.13
730.91
731.33
730.96
731.05
731.2
731.07
731.41
730.89
731.11
731.84
731.43
731.56
731.45
731.54
731.92
731.14
731.8
731.93
731.58
732.12
731.64
732.06
732.38
732.1
732.34
732.15
732.07
732.6
732.14
732.31
732.39
732.55
732.64
732.33
732.83
732.63
732.56
733.09
732.63
732.8
732.88
732.81
732.87
732.82
733.09
733.08
732.86
733.05
732.89
733.26
733.4
733.27
733.62
733.31
733.58
733.81
733.38
733.75
733.66
733.27
733.85
733.58
734.26
734.14
733.78
734.32
734.08
734.52
734.14
734.23
734.85
734.31
734.54
734.81
734.58
734.77
734.38
734.71
734.66
734.47
734.88
734.74
734.86
734.76
734.62
734.73
734.87
734.98
735.12
734.76
735.07
735.03
734.84
735.47
735.16
734.96
735.37
735.24
735.81
735.32
735.51
735.58
735.51
736.04
735.57
735.75
735.83
735.76
736.05
735.8
736.01
736.07
735.78
736.27
736.07
736.24
736.33
736.02
736.51
736.55
736.28
736.75
736.58
736.73
736.6
736.7
737.31
736.55
736.97
737.08
736.98
737.54
736.82
737.21
737.34
736.99
737.29
737.03
737.48
737.79
737.29
737.96
737.85
737.7
738.06
737.75
738.48
737.86
737.69
738.54
738.03
738.47
738.09
737.95
738.78
738.29
738.24
738.29
738.01
738.72
738.34
738.2
738.79
738.51
738.99
738.58
738.69
739.29
738.77
738.99
738.8
738.73
739.26
738.8
739.43
739.59
739.44
739.58
739.22
739.54
739.72
739.34
739.89
739.42
739.81
739.96
739.58
740.4
739.67
740.07
740.19
740.09
740.41
740.37
740.16
740.58
739.98
740.5
740.53
740.72
741.03
740.52
740.74
740.55
740.95
741.3
740.76
740.99
741.5
741.05
741.45
741.1
741.4
741.38
740.92
741.79
741.27
741.25
741.51
741.51
741.99
741.33
741.67
742.08
741.72
742.03
741.77
741.52
742.21
741.61
742.12
742.39
742.39
742.63
741.94
742.31
742.7
742.36
742.88
742.44
742.81
742.74
742.55
743.44
742.65
742.87
742.92
742.87
743.38
742.95
743.07
743.68
743.38
743.65
743.41
743.38
743.88
743.45
743.58
743.71
743.82
744.21
743.63
744.37
744.44
743.9
744.37
744.44
744.61
744.7
744.62
745.17
744.69
744.86
744.72
744.83
745.46
744.67
744.88
745.17
745.16
745.64
745.46
745.85
745.76
745.35
745.72
745.86
745.74
746.07
746.04
746.05
746.29
745.83
746.24
745.88
746.2
745.92
745.69
746.13
745.99
746.34
746.51
746.12
746.94
746.23
746.6
747.24
746.43
746.9
746.74
747.11
747.5
746.93
747.19
747.2
746.95
747.41
747.01
747.35
747.3
747.09
747.52
747.38
747.74
747.67
747.26
747.85
747.82
747.83
748.07
747.62
748.49
748.22
748.21
748.7
748.27
748.64
748.56
748.86
749.08
748.41
748.52
748.67
748.3
748.85
748.38
748.78
748.93
748.54
749.13
748.61
749.06
748.91
749.04
749.65
749.36
749.37
749.6
749.4
749.81
749.46
749.76
749.99
749.77
750.21
749.83
750.16
749.87
749.64
750.08
749.94
750.06
750.2
749.83
750.15
750.35
750.18
750.57
750.48
750.55
750.5
750.29
751.19
750.89
750.91
751.14
750.7
751.55
751.3
751.03
751.28
751.05
751.74
751.62
752.2
752.18
752.19
752.91
752.77
752.89
753.03
752.67
753.46
753.27
752.7
753.68
753.31
753.62
753.36
753.1
754.06
752.98
753.42
753.78
753.46
753.75
753.01
753.41
753.79
753.46
753.5
753.71
753.77
753.96
753.55
754.14
754.12
753.65
754.3
753.98
754.74
754.57
754.22
754.78
754.77
755.27
754.6
754.45
755.06
754.53
754.74
755.05
754.78
755.26
754.84
755.2
755.14
755.19
755.64
755.24
755.59
755.78
755.37
755.72
755.91
755.98
756.17
755.76
756.36
756.32
755.86
756.51
756.2
756.21
756.21
756.2
756.71
756.26
756.41
756.28
755.9
756.71
756.27
756.15
756.51
756.43
757
756.74
756.97
757.01
756.73
757.21
757.54
757.24
757.51
757.28
757.72
757.1
757.14
757.6
757.44
757.83
757.49
757.29
757.95
757.14
757.58
758.2
757.65
758.38
757.74
758.05
758.52
757.87
758.18
758.16
758.41
758.7
757.95
758.6
758.53
758.59
758.78
758.37
758.97
758.7
758.43
758.92
758.74
758.9
758.76
758.64
759.47
759.25
758.94
759.46
759.01
759.65
759.1
759.07
760.08
759.94
759.82
759.68
760.29
760.25
759.55
760.4
760.16
760.11
760.66
759.93
760.56
760.51
760.06
760.45
760.11
760.4
760.41
760.15
760.63
760.45
760.6
760.72
760.62
760.7
760.64
760.44
761.1
760.53
761.02
760.61
760.95
761.42
760.5
761.31
761.09
761.03
761.08
760.8
761.04
761.08
761.04
761.58
761.35
761.3
761.35
761.31
761.83
761.63
761.55
761.87
761.58
761.84
761.62
762.06
762.42
762.1
762.38
762.14
762.34
762.67
761.89
762.56
762.48
762.29
762.72
762.34
762.67
762.88
762.21
762.53
762.51
762.51
762.28
762.22
763.03
762.31
762.45
762.57
762.72
763.08
762.53
762.75
763.06
762.78
763.04
762.8
763.26
763.11
762.99
763.34
763.05
763.29
763.58
763.32
763.8
763.14
763.21
763.89
763.55
763.84
763.84
763.59
764.31
763.69
763.72
763.95
763.99
763.97
763.73
764.19
764.28
764.21
764.51
764.26
764.47
764.55
763.96
764.74
764.56
764.47
764.54
764.73
765.06
764.78
764.52
765
764.83
765.23
764.88
764.68
765.36
765.02
764.81
765.25
764.87
765.44
764.95
764.86
765.45
764.68
765.35
765.03
765.3
765.32
765.04
765.79
765.64
765.77
765.66
765.26
765.85
765.84
765.1
765.49
765.4
765.72
765.7
765.21
766.14
765.59
765.56
765.85
765.59
766.31
765.94
766.01
766.45
766.07
766.65
765.9
766.53
766.75
766.29
766.71
766.83
766.99
767.09
767.02
767.32
767.08
766.76
767.55
766.85
767.47
766.93
766.89
767.43
766.97
766.87
767.2
766.91
767.66
767.02
766.81
767.51
767.64
767.79
767.65
767.79
768.16
767.85
768.1
768.41
768.12
768.14
767.6
768.08
767.9
767.82
768.13
767.87
768.08
767.92
767.53
768.14
767.6
768.08
768.16
767.84
768.61
768.46
768.32
768.71
768.36
768.93
768.42
768.86
768.74
768.59
768.98
768.89
768.71
769.11
768.77
769.06
769.08
768.8
769.55
769.14
769
769.37
769.06
769.57
769.39
769.27
769.4
769.02
769.61
769.09
769.55
769.65
768.81
769.52
769.68
769.53
769.68
769.03
769.35
769.31
769.61
769.85
769.9
770.1
769.44
769.49
770.22
769.57
770.14
769.65
769.32
770.36
770.22
770.33
770.75
770.12
770.67
769.7
769.52
769.68
769.03
769.35
768.82
768.77
769.07
768.56
768.99
768.63
768.18
768.33
767.69
768.25
768.26
768
768.23
767.78
768.16
768.1
767.89
768.33
767.69
768
767.98
768
768.23
767.78
767.66
767.77
767.67
767.76
767.43
767.72
767.97
767.75
768.19
768.07
768.16
768.59
768.21
768.8
768.29
768.47
769.08
768.55
768.76
768.83
768.51
769.29
769.12
769.26
769.4
769.27
769.65
769.06
769.32
769.85
769.14
769.49
769.2
769.44
770.01
769.25
769.67
769.55
769.66
769.56
768.89
769.46
769.74
769.23
769.68
769.29
769.63
769.84
769.91
770.35
769.47
769.97
770.05
769.71
770.78
770.35
770.47
770.37
770.45
770.64
770.48
770.36
770.96
770.7
770.92
771
770.91
771.25
770.95
771.22
770.73
770.9
771
770.92
771.24
771.47
771.02
771.41
771.32
771.39
771.59
771.41
772.08
771.76
771.52
771.99
771.84
771.97
771.6
771.91
772.41
771.97
772.35
772.28
772.34
773.05
772.43
772.46
772.45
772.7
773
772.48
772.93
773.05
772.69
773.25
773.03
773.21
773.32
772.96
773.28
772.99
773.25
773.28
773.26
773.53
773.3
773.23
773.8
773.56
774.03
773.88
773.75
774.38
774.08
774.34
774.63
774.37
774.85
774.44
774.79
775.01
774.55
775.21
774.64
774.88
775.19
774.91
775.66
775.02
775.05
775.55
775.37
776.04
775.45
775.45
775.71
775.48
775.94
775.55
775.88
776.11
775.64
776.31
775.99
775.76
776.21
776.08
776.45
776.39
775.92
776.33
775.97
776.28
776.27
776.02
777.01
776.41
776.66
776.72
776.65
777.49
777.01
777.43
777.58
777.2
777.53
777.25
777.48
778.06
777.29
777.96
777.65
777.65
778.17
777.71
778.63
778.36
777.81
778.29
777.87
778.49
778.22
778.18
779.26
778.83
778.69
778.81
778.71
779.31
778.8
778.71
779.58
778.81
779.22
778.87
779.17
779.69
778.98
779.08
779.25
779.1
779.49
778.9
779.66
779.53
779.11
780.01
779.48
780.2
780.09
779.92
780.85
780.56
780.55
780.57
780.28
781.05
780.13
780.14
780.66
780.2
780.6
780.26
780.55
780.82
780.07
780.72
780.68
780.7
781.21
780.76
781.41
781.11
781.11
781.64
781.18
781.57
781.49
781.3
782.25
781.69
781.65
781.95
781.94
782.74
782.05
782.12
782.58
782.44
782.57
782.19
782.51
782.5
781.99
782.69
782.35
782.38
782.62
782.14
782.56
782.46
782.29
782.95
782.64
782.64
782.39
782.07
782.88
782.18
782.52
782.75
782.55
782.99
782.35
782.64
783.18
782.7
782.86
782.72
782.84
783.26
782.63
783.17
782.72
783.09
783.57
783.14
784.05
783.52
783.45
784.03
784.84
785.71
786.01
785.75
786.76
786.15
786.14
786.69
786.2
786.64
786.52
786.89
787.09
786.65
787.03
786.71
786.97
787.55
786.51
787.15
787.39
786.92
786.8
786.38
786.47
786.66
786.49
786.91
786.28
786.82
786.89
786.82
787.42
786.63
787.05
786.95
787.03
787.5
786.83
787.41
787.7
787.18
787.89
787.54
787.84
788.12
787.6
788.32
789.01
789.48
790.13
790.1
790.38
790.68
790.41
790.92
790.48
790.59
790.76
790.88
791.04
790.64
790.72
790.92
790.75
790.89
790.24
790.53
790.29
789.96
790.52
789.76
789.89
790.31
789.95
790.52
790.83
790.82
791.1
790.85
791.61
791.22
791.28
791.76
791.61
792.01
791.93
791.73
792.44
791.83
791.82
791.04
790.1
790.13
789.04
788.93
789.02
788.68
788.7
788.42
788.66
788.99
788.17
788.36
788.19
788.33
788.48
787.82
788.39
788.43
788.12
788.66
788.46
788.37
788.45
788.38
788.7
788.43
788.13
788.13
787.07
787.19
786.31
786.53
786.88
786.56
787.38
787.19
787.62
787.77
787.38
787.98
787.74
787.67
788.01
787.43
788.2
788.06
787.92
788.31
788.5
788.33
788.22
788.05
788.99
788.71
788.67
788.98
788.44
789.18
788.81
789.12
789.39
789.15
789.36
788.91
789.56
789.8
789.32
789.47
789.34
789.45
789.63
789.48
789.6
789.5
789.32
789.74
789.64
789.46
789.62
789.74
789.9
789.5
789.58
789.78
789.87
790.33
789.66
789.7
790.21
790.03
790.18
790.06
790.16
790.07
789.88
790.58
789.98
789.96
790.25
789.99
790.48
790.32
790.2
790.57
790.25
789.99
790.48
790.33
790.73
790.12
790.37
790.43
790.09
790.67
789.9
790.04
790.18
789.79
790.12
789.85
789.81
790.12
789.58
790.05
789.9
789.5
789.85
789.55
790.06
789.63
789.19
789.86
789.01
788.95
789
788.96
789.26
788.74
788.65
788.74
788.39
788.43
787.86
788.09
788.42
788.14
788.38
787.91
787.78
788.17
787.56
787.82
787.86
787.56
787.56
787.3
787.52
787.33
786.44
786.95
786.52
786.88
786.32
785.73
786.52
785.82
785.65
785.79
785.41
785.73
784.95
785.08
785
783.99
784.62
784.05
784.3
784.08
783.5
783.99
783.84
783.16
783.51
782.42
783.1
782.77
782.27
782.45
782.03
782.39
781.82
781.53
781.79
780.52
780.84
780.84
780.31
780.26
779.52
779.64
779.53
778.86
778.92
778.36
778.32
778.37
777.54
777.75
777.05
777.15
777.32
776.66
776.97
775.94
775.78
776.45
775.35
775.55
775.12
774.98
775.1
774.49
774.5
774.24
773.69
773.67
773.17
773.6
772.98
772.75
772.95
772.27
772.35
772.53
771.87
771.93
771.63
770.87
771.28
770.93
771.23
770.73
770.14
770.66
770.21
770.34
769.97
769.78
770.21
769.59
769.62
769.09
769.03
769.1
768.78
769.06
769.06
768.57
768.74
768.6
768.45
768.59
767.96
768.52
768.53
768.77
769.07
768.81
769.03
768.85
768.75
768.84
768.25
768.51
768.29
768.22
768.29
767.73
767.96
767.51
767.4
768
767.23
767.64
767.55
766.86
767.46
767.19
767.18
767.19
766.68
767.11
767
766.83
766.99
766.34
766.91
766.67
766.38
766.63
766.16
766.56
766.23
766
766.46
765.8
766.13
765.85
765.84
766.34
765.66
765.99
765.97
765.48
765.91
765.53
765.86
765.33
765.29
766.07
765.64
765.76
765.92
765.53
766.11
765.86
765.58
766.08
765.89
765.8
765.88
765.81
766.37
765.64
765.76
765.92
765.77
766.16
765.56
765.84
766.09
765.63
766.02
765.95
765.75
766.18
765.79
766.39
765.87
766.32
766.19
766.04
766.67
766.37
766.13
766.59
766.2
766.03
766.18
766.04
766.67
766.62
766.66
766.38
766.37
766.88
766.19
766.28
766.96
766.62
766.92
766.42
766.59
766.95
766.63
766.91
766.92
767.41
766.74
767.06
767.3
767.08
767.78
767.17
767.44
767.71
767.48
767.68
767.5
767.9
767.57
767.6
768.58
767.97
768
768.23
768.28
768.74
768.09
768.4
768.89
768.45
768.84
768.51
768.79
769.3
768.61
768.95
768.91
769.19
769.71
769
769.62
769.84
769.39
769.78
769.7
769.77
769.72
769.5
770.45
769.89
769.86
770.14
770.14
770.66
770.2
770.34
770.48
770.36
770.97
770.45
770.63
771.24
770.7
771.43
771.31
771.41
771.33
771.14
772.06
772.03
771.55
771.71
771.57
772.2
771.91
771.64
772.64
772.03
772.3
772.33
772.29
772.84
772.36
772.52
772.64
772.79
772.91
772.56
772.61
773.07
772.67
773.02
772.98
772.75
773.46
772.84
773.63
773.72
773.37
773.94
773.44
773.88
773.5
773.56
774.28
773.66
773.69
774.18
774.01
774.15
773.77
774.09
774.34
773.86
774.28
774.17
774.52
774.73
774.04
774.89
774.67
774.33
774.64
774.11
774.83
774.46
774.27
774.44
774.54
774.71
774.31
774.4
774.84
774.45
774.27
774.69
774.08
774.6
774.15
774.27
774.7
774.31
774.66
774.09
774.59
774.67
774.35
774.62
774.64
774.62
774.65
773.85
774.28
774.42
774.3
774.41
774.31
774.4
774.07
773.85
774.54
774.2
774.23
774.22
773.96
774.45
773.77
774.1
774.07
773.84
774.29
773.65
774.2
774.25
773.43
773.89
773.74
773.62
773.72
773.39
773.66
773.94
773.44
773.88
773.75
773.86
773.51
773.3
774.25
773.44
773.37
773.69
773.4
773.92
773.21
773.57
773.77
773.33
773.46
773.35
773.7
773.66
773.18
773.59
773.24
773.28
773.51
773.05
773.7
773.4
773.15
773.62
772.96
773.53
773.3
773.23
773.31
772.97
773.28
773.25
773.54
773.54
773.04
772.95
773.29
772.98
773.51
773.05
773.2
773.58
773.25
773.79
773.33
772.95
773.55
773.02
773.98
773.66
773.42
773.9
773.48
773.34
772.95
772.52
773.14
772.62
772.29
772.59
772.32
772.82
772.13
772.47
772.68
772.5
772.66
772.52
772.39
772.76
772.44
772.71
772.73
772.71
772.99
772.49
773.18
773.34
772.69
773
772.99
773.25
773.03
772.96
773.54
772.77
772.93
773.05
772.94
773.29
772.74
772.96
773.03
772.96
773.53
773.03
772.96
773.28
773
773.24
773.04
773.2
773.32
772.7
773.24
773.03
772.7
772.99
772.49
772.66
772.78
772.42
773.24
772.53
772.62
772.56
772.35
773.05
772.43
772.72
773.23
773.04
772.95
772.53
773.14
772.88
772.58
773.62
772.96
773.28
773.26
773.02
773.22
773.3
773.23
773.3
773.24
773.8
773.57
773.25
773.54
773.79
773.83
773.79
774.08
774.34
773.87
774.01
774.66
774.09
774.33
774.13
774.56
774.45
774.02
774.4
774.58
774.68
774.59
774.41
775.07
774.77
774.51
775
774.82
775.49
774.91
774.64
775.64
775.29
775.33
775.56
775.35
775.8
775.41
775.74
775.97
775.26
775.87
775.61
776.08
776.2
775.56
776.39
776.18
776.36
776.2
775.83
776.66
776.46
776.36
776.97
776.69
777.2
776.51
776.58
777.04
776.89
777.02
777.16
777.3
777.69
777.11
777.34
777.67
776.86
777.57
777.46
777.56
777.99
777.36
777.89
777.71
777.59
778.22
777.92
778.71
778.02
778.36
778.84
778.68
778.82
778.7
778.8
779.23
779.12
779.22
779.13
778.94
779.37
779
779.31
779.56
778.83
779.72
779.73
779.97
780.29
779.49
780.19
780.1
779.91
780.08
779.93
780.32
780.25
780.05
780.22
780.33
780.75
780.65
780.48
780.88
780.79
780.87
780.81
781.11
781.12
780.59
781.05
781.17
780.81
781.37
781.15
781.59
781.75
781.08
781.67
781.41
781.89
781.73
781.61
781.98
781.92
781.97
782.19
782
782.42
782.06
782.1
782.59
782.17
782.54
782.48
782.53
783.01
782.33
782.91
783.21
782.93
783.18
782.96
783.68
783.32
783.1
783.81
783.46
783.76
783.78
783.48
784.01
784.07
784.02
784.32
784.07
784.53
784.67
784.53
785.19
784.09
784.79
784.71
784.77
784.99
784.27
784.89
785.14
784.92
785.11
784.69
785.31
785.31
784.78
785.51
785.4
785.49
785.67
785.25
786.14
785.91
785.56
785.88
785.59
786.37
785.96
786.05
786.23
785.81
786.44
786.43
786.16
786.4
786.19
786.64
786.51
786.36
786.76
786.42
786.7
786.99
786.47
786.92
786.8
786.64
786.51
785.84
786.68
786.49
786.38
787.01
786.45
786.94
786.52
786.88
787.1
786.64
787.04
786.69
786.47
786.66
786.5
787.16
787.12
786.88
787.36
786.94
787.3
787.26
787.29
788.06
787.93
788.03
788.21
787.79
788.42
787.88
788.07
788.44
787.85
788.9
788.26
788.01
788.5
788.07
788.45
788.38
788.17
788.88
788.27
788.78
788.89
787.99
789.05
788.65
788.99
788.97
788.72
789.2
788.78
789.14
789.37
788.9
789.31
789.22
789.29
789.76
789.62
790.01
789.68
789.69
790.49
789.53
790.09
790.14
790.08
790.68
789.89
790.57
790.52
790.29
790.76
790.35
790.7
790.94
790.46
791.14
790.82
790.56
791.33
790.92
791.27
790.98
790.95
791.52
791.29
791.76
791.35
791.43
791.9
791.23
791.54
791.54
791.53
792.08
791.6
792.02
792.19
791.77
792.13
791.56
792.05
792.44
791.82
792.36
792.16
792.07
792.41
792.12
792.63
792.47
792.33
792.73
792.64
792.99
792.41
792.38
792.94
792.73
793.17
793.07
793.14
793.63
792.93
793.81
793.58
793.77
793.88
793.25
794.07
794.17
793.54
794.35
793.92
794.01
794.22
794.02
794.74
794.11
794.39
794.69
794.7
794.96
794.73
794.65
795
794.97
795.26
795.01
794.96
795.27
795
795.5
795.34
795.2
795.87
795.29
795.79
796.17
795.84
796.39
796.18
796.63
796.79
796.1
796.71
796.45
796.67
797.02
796.44
797.21
796.83
796.61
797.35
796.7
797.53
796.82
796.88
797.65
796.98
797.3
797.56
797.6
797.83
797.64
797.53
797.63
797.54
797.89
797.58
798.12
798.2
797.59
798.12
797.67
798.04
798.27
798.06
798.8
798.16
798.17
798.7
797.97
798.86
798.65
798.54
799.47
798.38
799.06
798.75
798.47
799.53
799.16
798.92
799.4
798.98
799.62
799.35
799.3
799.89
799.37
799.83
799.71
799.53
799.96
799.59
800.18
799.95
799.59
800.19
799.94
800.43
799.73
800.06
800.6
800.12
800.27
800.14
800.52
801.01
800.59
800.41
800.3
800.12
800.55
799.9
800.45
800.81
799.94
800.69
800.59
800.68
800.61
800.12
801.09
800.53
800.46
800.8
800.22
801.27
800.64
800.63
801.74
800.78
801.06
801.1
801.05
801.65
800.85
801.54
801.5
801.25
801.75
801.31
801.96
801.95
801.41
802.16
801.79
802.1
802.11
801.54
802.04
801.88
802.02
802.17
801.77
802.38
802.14
802.34
802.45
802.06
802.69
802.14
802.62
802.75
802.36
802.7
803.23
803.04
803.21
802.52
802.28
801.95
801.14
801.57
801.47
801.28
801.44
801.04
801.38
801.37
801.09
801.61
801.43
802.14
801.26
801.19
802.08
801.3
801.43
801.05
800.82
801.57
800.92
801.2
800.97
800.89
801.52
800.96
801.45
801.3
800.88
801.25
801.2
801.24
801.21
800.96
802
801.38
801.35
801.66
801.38
801.91
801.17
801.26
802.01
801.1
801.6
801.73
801.59
802.55
801.71
802.44
802.36
802.15
802.61
802.21
802.28
802.5
802.3
802.75
802.64
802.73
802.66
802.44
803.18
802.81
802.58
803.06
802.64
803.27
803.01
802.95
803.29
802.98
803.53
803.33
803.24
803.58
803.02
803.22
803.61
803.26
803.85
803.33
803.5
803.63
803.52
803.89
803.57
803.84
803.62
803.25
803.85
803.6
803.82
804.18
803.87
804.13
803.92
803.54
804.42
803.93
804.08
803.69
803.74
804.25
803.8
804.2
804.4
804.5
804.69
803.98
804.58
804.63
804.02
804.56
804.08
804.5
804.41
804.49
804.97
804.56
804.91
805.17
804.66
805.65
805.07
805.29
805.94
805.09
805.55
805.16
805.49
805.77
804.97
805.66
805.62
805.1
805.82
805.2
805.73
805.84
805.17
806.04
805.56
805.7
805.58
805.41
805.83
805.74
805.82
805.76
805.81
806.32
805.87
805.98
806.45
805.77
806.07
805.82
806.3
806.73
805.79
806.61
806.73
806.35
806.68
806.4
807.18
807.35
806.64
807.54
806.76
807.42
807.42
807.13
807.67
807.19
807.61
807.8
807.37
808.01
807.47
807.64
808.35
807.43
807.96
807.77
808.22
808.39
807.69
808.01
808.3
808.03
808.27
807.78
808.48
808.43
808.19
808.68
808.54
808.66
808.56
808.37
809.09
808.19
808.4
808.79
808.72
809.35
808.52
808.96
809.14
808.42
809.04
808.79
808.99
809.39
808.48
809.27
809.15
808.97
809.13
808.71
809.35
809.08
808.75
809.32
808.82
809.53
809.48
809.23
810.01
809.61
809.68
809.63
809.39
810.15
809.5
809.78
810.38
809.57
810
809.63
810.22
810.28
809.66
810.2
810.01
809.9
810.27
809.95
810.78
810.36
809.86
810.87
810.27
810.51
810.02
809.88
810.84
810.02
810.16
810.33
810.17
810.88
809.98
810.48
810.33
810.17
810.6
810.22
810.55
810.55
809.99
810.75
810.66
810.45
810.64
810.19
810.86
810.56
810.26
811.08
810.37
810.69
810.71
810.4
811.24
810.78
810.9
810.8
810.61
811.05
810.4
810.67
811.29
810.18
810.86
810.84
810.57
811.08
810.64
811.02
811.26
811.05
811.24
810.51
811.41
810.92
810.77
811.76
811.17
811.4
811.2
810.82
811.71
811.23
811.07
811.5
810.83
811.42
810.91
811.07
811.5
810.85
811.12
811.17
811.12
811.17
810.56
811.37
810.96
811.03
811.26
810.77
811.48
811.42
811.19
811.95
811.3
811.29
811.59
811.31
812.13
811.42
811.47
811.71
811.5
812.24
811.61
811.58
812.18
811.93
812.43
811.99
811.81
812.25
811.6
812.15
812.25
812.15
812.53
811.91
812.45
811.98
811.83
812.52
812.2
812.47
812.53
812.47
812.81
811.95
812.41
812.85
812.47
812.52
812.2
812.47
812.52
811.91
812.44
811.99
812.37
812.61
811.83
812.51
812.21
812.19
812.21
811.63
812.41
812.02
811.78
812.28
812.4
812.87
812.46
812.25
812.71
812.6
812.68
812.91
812.7
812.89
812.44
812.55
813.01
812.62
812.95
812.68
812.61
813.25
812.69
813.46
813.07
813.12
813.36
812.59
813.54
813.29
813.21
813.86
813.28
814.07
813.95
813.77
814.49
813.87
814.12
814.2
814.11
814.48
813.87
814.4
814.51
814.13
814.46
814.18
814.41
814.79
814.17
814.99
814.57
814.92
815.2
814.38
815.38
815.08
814.77
815.6
815.17
814.97
815.15
815.27
816.02
815.36
815.65
815.69
815.37
815.93
815.45
815.86
815.51
815.51
816.1
815.86
816.08
816.16
815.82
816.1
816.15
815.53
816.37
815.92
816.59
816.29
816.26
816.86
816.33
816.79
816.68
816.49
817.23
816.59
816.85
817.2
816.89
817.73
817.01
817.34
817.63
817.09
817.56
817.15
817.51
817.77
817.25
817.99
817.64
817.64
817.94
817.39
818.15
817.78
817.53
818.32
817.64
818.22
818.3
817.93
818.83
818.05
818.43
818.68
818.74
819.26
818.24
818.27
818.82
818.34
819.04
819.01
819.02
819.31
818.77
819.24
819.11
819.22
819.41
818.96
819.92
819.39
819.26
819.68
819.3
819.93
819.09
818.68
819.03
818.73
818.98
818.78
818.93
819.39
818.69
819.3
819.34
819.03
819.29
819.07
819.25
819.4
818.97
819.63
819.34
819.6
819.95
819.64
819.9
819.69
819.58
820.25
819.67
820.45
819.79
819.77
820.38
820.12
820.64
820.18
820.3
820.76
820.37
820.7
821.01
820.15
820.61
820.49
821.17
820.87
820.56
821.12
820.92
821.08
821.24
820.53
821.43
821.23
821.1
821.51
820.86
821.43
821.23
821.11
821.5
821.16
821.74
821.53
821.42
821.81
821.46
822.05
821.83
821.45
822.07
821.82
822.03
822.14
821.75
822.1
821.79
822.34
822.45
821.78
822.36
822.43
822.36
822.43
822.37
823
822.45
822.06
822.69
822.15
823.18
822.88
822.83
823.46
822.62
823.36
823
822.73
823.83
823.18
823.44
823.52
823.14
823.78
823.21
823.71
823.56
823.4
823.83
823.47
823.77
824.38
823.55
824.27
824.23
823.97
824.49
824.04
824.72
824.43
824.09
825.26
824.54
825.15
825.21
824.86
825.47
824.64
825.36
825.32
825.06
825.58
825.13
825.51
825.77
825.25
825.7
825.31
825.64
825.94
825.39
826.16
825.79
825.52
826.05
825.58
826.28
825.97
825.65
826.22
826.02
826.2
826.04
825.88
826.31
825.94
826.26
826.86
826.34
826.79
826.4
826.72
827.04
826.46
827.26
826.57
826.87
827.2
826.62
827.13
826.98
826.81
827.25
827.16
827.53
827.22
826.9
828.05
827.64
827.41
827.32
826.81
827.55
827.2
827.2
827.79
827.57
828.05
827.64
827.99
827.99
827.39
828.21
828.08
827.9
828.06
827.63
828.28
828.31
828.28
828.61
828.31
828.87
828.38
828.22
828.65
828.57
828.64
828.88
828.67
829.43
828.78
829.04
829.12
829.03
829.42
828.78
829.63
829.47
829.03
829.41
829.09
829.65
829.76
829.06
829.68
829.72
829.98
830.05
829.7
830.58
830.42
829.96
830.96
830.38
830.59
830.41
830.56
831.02
830.62
830.96
831.26
831
831.52
830.78
831.4
831.76
830.85
831.65
831.54
831.64
831.85
831.08
832.03
831.52
831.35
832.11
831.73
832.07
831.76
831.75
832.34
832.13
832
832.43
832.04
832.98
831.87
831.94
832.18
832.26
832.79
832.32
832.43
832.93
832.5
833.15
832.9
833.1
833.24
832.81
833.79
832.93
832.79
833.5
832.89
833.4
833.28
833.07
833.57
833.12
833.82
833.5
833.48
834.08
833.58
833.99
834.24
834.01
834.53
833.77
834.73
834.49
834.1
834.73
834.19
834.35
834.81
834.11
835.31
834.88
834.65
835.16
834.41
835.06
834.79
834.43
835.34
834.85
835.26
835.22
834.94
835.79
835.04
835.4
835.39
835.4
835.68
835.14
835.9
835.85
835.28
836.09
835.68
835.44
835.94
835.52
836.46
836.26
835.52
836.18
835.89
836.45
835.96
835.8
836.82
836.24
836.43
836.59
836.13
837.14
836.25
837.02
836.66
836.37
837.22
837.08
837.5
837.44
836.89
837.36
837.26
837.34
837.57
836.77
837.17
837.43
837.2
837.69
836.97
837.29
837.33
837.28
838.23
837.69
838.16
838.05
837.55
838.58
838
838.18
838.64
837.63
838.52
838.34
838.8
838.7
838.18
838.93
838.59
838.87
838.64
838.23
839.5
838.99
838.83
838.97
838.85
839.55
838.95
838.86
839.85
839.28
839.48
839.31
839.45
839.93
839.22
839.83
839.91
839.53
840.17
839.61
840.09
839.68
839.72
840.6
839.84
840.2
840.49
839.93
840.71
840.35
840.35
840.36
840.33
840.98
840.41
840.61
841.03
840.37
840.63
841.03
840.66
841.29
840.44
841.18
841.14
841.16
841.16
840.55
841.68
841.31
841.02
841.58
841.09
841.82
841.8
841.5
842.06
841.58
842
841.94
841.68
842.52
841.79
841.81
842.41
841.88
842.33
841.95
841.97
842.57
841.74
842.15
839.41
831.65
826.86
824.32
823.9
823.41
822.95
823.66
823.32
823.62
823.35
823.01
823.59
823.39
823.26
823.96
823.35
823.88
823.42
823.81
824.35
823.58
824.25
823.97
824.2
824.87
823.71
824.42
824.69
823.87
824.59
824.25
824.83
824.91
824.25
824.83
824.62
825.08
824.69
824.44
824.96
824.79
824.95
825.38
825.02
825.03
825.03
825.01
825.62
825.37
825.6
825.39
825.58
825.7
825.31
825.64
825.66
825.63
825.96
825.66
826.51
826.35
825.91
826.29
826.25
826.57
826.31
825.94
826.85
826.35
826.49
826.66
826.22
826.89
826.61
826.55
826.9
826.59
827.15
826.96
827.12
827.28
826.56
827.18
827.52
827.22
827.77
827.3
827.7
827.65
