77.546
77.595
77.614
77.656
77.682
77.689
77.746
77.756
77.779
77.788
77.842
77.855
77.876
77.918
77.974
77.955
77.972
78.018
78.041
78.082
78.139
78.15
78.203
78.218
78.236
78.251
78.331
78.354
78.396
78.422
78.492
78.526
78.526
78.589
78.627
78.688
78.666
78.716
78.736
78.718
78.796
78.854
78.835
78.883
78.904
78.917
78.969
79.018
79.039
79.083
79.108
79.149
79.146
79.179
79.214
79.246
79.283
79.313
79.383
79.354
79.411
79.394
79.472
79.501
79.506
79.534
79.604
79.609
79.603
79.674
79.707
79.68
79.701
79.781
79.774
79.814
79.842
79.883
79.879
79.916
79.883
79.944
79.987
80.015
80.023
80.048
80.091
80.119
80.159
80.189
80.227
80.227
80.259
80.297
80.296
80.363
80.37
80.396
80.439
80.467
80.475
80.5
80.544
80.571
80.581
80.605
80.65
80.676
80.686
80.743
80.76
80.81
80.834
80.845
80.869
80.88
80.905
80.915
80.94
80.983
81.014
81.019
81.082
81.093
81.117
81.128
81.186
81.135
81.212
81.246
81.25
81.28
81.287
81.314
81.324
81.349
81.36
81.384
81.364
81.414
81.438
81.45
81.474
81.452
81.471
81.488
81.508
81.49
81.505
81.492
81.504
81.528
81.506
81.525
81.542
81.56
81.545
81.524
81.543
81.56
81.545
81.524
81.543
81.527
81.507
81.524
81.543
81.527
81.507
81.491
81.505
81.526
81.508
81.49
81.505
81.426
81.46
81.499
81.497
81.466
81.458
81.467
81.458
81.434
81.419
81.434
81.42
81.4
81.382
81.399
81.349
81.361
81.316
81.322
81.316
81.355
81.288
81.28
81.287
81.214
81.211
81.214
81.211
81.214
81.178
81.143
81.14
81.143
81.074
81.067
81.073
81.067
81.007
81.025
81.011
80.989
80.943
80.915
80.908
80.879
80.873
80.844
80.871
80.879
80.873
80.844
80.871
80.813
80.831
80.815
80.829
80.784
80.823
80.822
80.789
80.818
80.793
80.782
80.825
80.788
80.753
80.784
80.79
80.785
80.724
80.743
80.76
80.745
80.758
80.747
80.789
80.72
80.746
80.758
80.779
80.795
80.747
80.79
80.785
80.757
80.78
80.794
80.813
80.798
80.81
80.834
80.811
80.833
80.846
80.836
80.843
80.904
80.85
80.865
80.884
80.902
80.885
80.9
80.92
80.903
80.917
80.939
80.919
80.937
80.987
81.01
80.989
81.041
81.029
81.006
81.026
81.042
81.094
81.082
81.092
81.117
81.128
81.119
81.127
81.154
81.163
81.189
81.166
81.219
81.207
81.217
81.242
81.286
81.283
81.284
81.317
81.287
81.348
81.295
81.307
81.364
81.381
81.399
81.384
81.397
81.453
81.471
81.456
81.501
81.53
81.538
81.565
81.608
81.605
81.606
81.64
81.676
81.714
81.68
81.71
81.751
81.784
81.788
81.819
81.825
81.854
81.829
81.851
81.865
81.886
81.902
81.922
81.972
81.963
81.937
81.993
82.013
82.029
82.049
82.065
82.12
82.14
82.123
82.172
82.198
82.242
82.239
82.241
82.275
82.312
82.35
82.315
82.414
82.397
82.412
82.433
82.483
82.509
82.52
82.545
82.592
82.586
82.59
82.622
82.663
82.697
82.667
82.693
82.773
82.774
82.772
82.809
82.811
82.844
82.85
82.88
82.923
82.955
82.961
82.991
83.034
83.032
83.034
83.102
83.112
83.138
83.151
83.174
83.224
83.251
83.228
83.282
83.341
83.324
83.339
83.396
83.417
83.433
83.455
83.47
83.528
83.548
83.566
83.55
83.635
83.667
83.674
83.668
83.708
83.745
83.748
83.781
83.822
83.858
83.862
83.859
83.897
83.935
83.937
83.971
84.012
84.084
84.057
84.044
84.092
84.158
84.172
84.159
84.171
84.232
84.251
84.269
84.326
84.348
84.329
84.345
84.368
84.419
84.447
84.422
84.445
84.496
84.524
84.535
84.599
84.579
84.632
84.622
84.666
84.701
84.707
84.738
84.783
84.817
84.787
84.814
84.863
84.893
84.903
84.931
84.979
84.974
84.978
85.012
85.055
85.018
85.048
85.096
85.126
85.175
85.132
85.17
85.173
85.207
85.214
85.245
85.255
85.282
85.295
85.32
85.373
85.364
85.371
85.402
85.449
85.445
85.448
85.482
85.489
85.557
85.536
85.553
85.576
85.592
85.616
85.631
85.656
85.671
85.696
85.71
85.736
85.75
85.776
85.789
85.815
85.829
85.855
85.869
85.895
85.909
85.934
85.949
85.974
85.989
86.014
86.029
86.054
86.069
86.056
86.104
86.138
86.145
86.141
86.143
86.217
86.19
86.213
86.231
86.29
86.314
86.293
86.311
86.333
86.352
86.373
86.393
86.45
86.439
86.448
86.479
86.451
86.513
86.534
86.516
86.532
86.594
86.615
86.597
86.65
86.681
86.653
86.678
86.732
86.686
86.724
86.731
86.761
86.851
86.771
86.803
86.851
86.848
86.887
86.893
86.849
86.926
86.935
86.928
86.895
86.962
86.943
86.958
86.946
87.031
87.035
86.992
87.069
87.039
87.028
87.037
87.03
87.035
87.032
86.995
87.028
86.998
87.025
87.04
86.989
87.032
87.034
87.031
87.036
87.03
87.036
86.991
87.031
86.958
86.984
86.962
86.98
86.927
86.896
86.886
86.893
86.888
86.815
86.803
86.813
86.806
86.735
86.721
86.695
86.68
86.654
86.639
86.614
86.599
86.536
86.515
86.495
86.475
86.417
86.391
86.377
86.352
86.261
86.226
86.22
86.187
86.141
86.105
86.063
86.024
86.021
85.948
85.974
85.878
85.886
85.88
85.81
85.76
85.765
85.725
85.721
85.653
85.599
85.611
85.598
85.574
85.519
85.532
85.482
85.453
85.403
85.411
85.403
85.338
85.319
85.337
85.284
85.259
85.205
85.216
85.17
85.174
85.133
85.095
85.055
85.053
85.019
85.012
84.982
84.934
84.94
84.935
84.903
84.857
84.825
84.852
84.83
84.812
84.757
84.73
84.755
84.696
84.676
84.655
84.639
84.652
84.606
84.571
84.64
84.579
84.56
84.539
84.559
84.541
84.521
84.466
84.514
84.508
84.477
84.468
84.476
84.469
84.403
84.424
84.407
84.421
84.374
84.377
84.376
84.339
84.373
84.342
84.37
84.345
84.331
84.307
84.328
84.346
84.295
84.266
84.292
84.27
84.253
84.267
84.291
84.27
84.253
84.232
84.25
84.199
84.206
84.201
84.205
84.203
84.203
84.169
84.196
84.211
84.16
84.171
84.159
84.242
84.169
84.197
84.173
84.194
84.176
84.191
84.214
84.159
84.206
84.201
84.205
84.203
84.204
84.239
84.243
84.241
84.207
84.237
84.246
84.274
84.25
84.27
84.289
84.273
84.287
84.274
84.285
84.347
84.294
84.303
84.368
84.347
84.33
84.344
84.368
84.347
84.366
84.349
84.364
84.387
84.403
84.389
84.401
84.427
84.44
84.465
84.479
84.467
84.513
84.509
84.512
84.546
84.516
84.542
84.592
84.585
84.59
84.622
84.595
84.654
84.675
84.62
84.668
84.699
84.708
84.737
84.712
84.769
84.793
84.771
84.791
84.81
84.866
84.853
84.865
84.891
84.905
84.929
84.908
84.962
84.989
85.001
85.028
85.04
85.067
85.043
85.101
85.087
85.099
85.126
85.138
85.164
85.178
85.203
85.218
85.241
85.258
85.28
85.297
85.282
85.295
85.321
85.335
85.396
85.381
85.393
85.42
85.433
85.459
85.473
85.498
85.512
85.5
85.51
85.576
85.556
85.573
85.595
85.613
85.635
85.616
85.669
85.697
85.672
85.731
85.681
85.76
85.767
85.759
85.805
85.801
85.843
85.805
85.875
85.852
85.872
85.892
85.912
85.932
85.914
85.929
85.954
85.97
85.956
86.005
86
86.041
86.044
86.04
86.082
86.082
86.12
86.086
86.116
86.128
86.155
86.169
86.194
86.172
86.153
86.208
86.235
86.249
86.275
86.29
86.276
86.326
86.321
86.325
86.359
86.404
86.404
86.366
86.399
86.408
86.438
86.449
86.439
86.486
86.483
86.485
86.522
86.527
86.56
86.532
86.556
86.611
86.601
86.572
86.596
86.614
86.674
86.699
86.676
86.696
86.678
86.695
86.717
86.774
86.725
86.767
86.807
86.772
86.802
86.814
86.842
86.856
86.843
86.855
86.845
86.891
86.927
86.896
86.923
86.938
86.962
86.98
87.002
86.984
86.999
87.025
87.04
87.028
86.999
87.101
87.051
87.093
87.096
87.131
87.14
87.13
87.14
87.169
87.146
87.163
87.189
87.203
87.193
87.199
87.235
87.239
87.276
87.242
87.312
87.288
87.31
87.29
87.308
87.368
87.356
87.327
87.392
87.373
87.39
87.414
87.47
87.46
87.469
87.461
87.467
87.501
87.51
87.503
87.509
87.542
87.551
87.544
87.588
87.59
87.626
87.596
87.62
87.64
87.659
87.684
87.66
87.722
87.666
87.715
87.749
87.799
87.717
87.749
87.799
87.794
87.798
87.795
87.797
87.873
87.847
87.869
87.85
87.865
87.893
87.868
87.929
87.914
87.927
87.916
87.965
87.962
87.964
88.002
88.008
88.042
88.012
87.998
88.05
88.083
88.054
88.079
88.097
88.12
88.14
88.161
88.183
88.163
88.181
88.165
88.179
88.245
88.228
88.242
88.309
88.29
88.307
88.292
88.344
88.338
88.303
88.373
88.392
88.375
88.389
88.377
88.427
88.463
88.431
88.42
88.43
88.5
88.479
88.457
88.476
88.499
88.519
88.541
88.601
88.588
88.56
88.584
88.564
88.621
88.612
88.618
88.614
88.656
88.661
88.654
88.702
88.699
88.742
88.703
88.738
88.747
88.74
88.745
88.821
88.835
88.823
88.833
88.864
88.876
88.866
88.835
88.901
88.884
88.898
88.927
88.941
88.93
88.938
88.933
88.976
89.02
88.98
89.016
89.023
89.058
89.067
89.06
89.105
89.148
89.109
89.104
89.107
89.185
89.197
89.187
89.235
89.235
89.234
89.236
89.273
89.323
89.278
89.318
89.363
89.365
89.322
89.36
89.408
89.407
89.407
89.408
89.406
89.448
89.452
89.489
89.497
89.531
89.502
89.526
89.506
89.562
89.556
89.559
89.599
89.603
89.602
89.601
89.644
89.605
89.64
89.689
89.73
89.693
89.686
89.731
89.774
89.735
89.73
89.733
89.813
89.824
89.775
89.776
89.857
89.867
89.819
89.859
89.907
89.823
89.897
89.915
89.94
89.918
89.936
89.962
89.98
89.965
89.977
90.009
90.061
90.058
90.019
90.014
90.057
90.062
90.056
90.104
90.142
90.152
90.1
90.147
90.146
90.148
90.145
90.19
90.191
90.192
90.19
90.233
90.235
90.235
90.193
90.23
90.198
90.226
90.243
90.269
90.247
90.265
90.291
90.268
90.33
90.276
90.281
90.318
90.368
90.367
90.326
90.361
90.413
90.369
90.406
90.416
90.447
90.463
90.448
90.462
90.489
90.468
90.443
90.466
90.445
90.506
90.452
90.499
90.5
90.499
90.5
90.499
90.5
90.54
90.548
90.54
90.589
90.628
90.595
90.581
90.635
90.67
90.641
90.624
90.64
90.666
90.645
90.661
90.649
90.699
90.7
90.696
90.786
90.706
90.777
90.755
90.816
90.805
90.773
90.8
90.86
90.808
90.812
90.85
90.858
90.852
90.857
90.894
90.903
90.937
90.908
90.933
90.954
90.935
90.952
90.937
90.95
90.98
90.954
90.976
90.999
90.979
90.955
90.975
91.042
91.026
90.998
91.022
91.001
91.019
91.046
91.022
91.043
91.066
91.046
91.063
91.091
91.109
91.094
91.106
91.138
91.152
91.14
91.149
91.142
91.148
91.144
91.146
91.187
91.151
91.182
91.197
91.226
91.159
91.216
91.252
91.261
91.255
91.259
91.257
91.299
91.307
91.255
91.302
91.344
91.352
91.301
91.347
91.306
91.342
91.31
91.338
91.356
91.341
91.353
91.385
91.399
91.387
91.397
91.389
91.395
91.433
91.4
91.429
91.446
91.431
91.444
91.475
91.448
91.471
91.494
91.516
91.497
91.512
91.5
91.509
91.545
91.513
91.542
91.558
91.587
91.561
91.584
91.564
91.581
91.609
91.585
91.563
91.625
91.614
91.58
91.61
91.627
91.654
91.631
91.608
91.67
91.659
91.626
91.655
91.672
91.699
91.676
91.653
91.674
91.698
91.677
91.695
91.723
91.698
91.72
91.701
91.759
91.751
91.715
91.747
91.762
91.791
91.766
91.745
91.763
91.79
91.767
91.787
91.813
91.79
91.81
91.835
91.856
91.838
91.811
91.834
91.857
91.879
91.86
91.833
91.899
91.885
91.939
91.936
91.938
91.98
91.943
91.975
91.947
91.971
91.993
91.974
91.99
92.019
91.994
92.016
92.083
92.025
92.031
92.026
92.072
92.077
92.071
92.078
92.071
92.121
92.076
92.115
92.081
92.111
92.128
92.113
92.169
92.164
92.167
92.165
92.166
92.166
92.166
92.167
92.208
92.216
92.208
92.216
92.165
92.253
92.22
92.205
92.218
92.249
92.266
92.25
92.264
92.252
92.263
92.296
92.268
92.291
92.315
92.293
92.313
92.338
92.318
92.334
92.321
92.331
92.367
92.377
92.37
92.374
92.373
92.372
92.418
92.376
92.457
92.429
92.496
92.524
92.5
92.478
92.497
92.524
92.5
92.52
92.546
92.524
92.543
92.527
92.541
92.572
92.545
92.569
92.591
92.572
92.588
92.574
92.629
92.626
92.584
92.621
92.631
92.624
92.629
92.669
92.677
92.671
92.632
92.666
92.723
92.718
92.678
92.67
92.676
92.715
92.724
92.716
92.722
92.718
92.721
92.676
92.757
92.819
92.72
92.763
92.812
92.727
92.756
92.776
92.8
92.825
92.801
92.867
92.808
92.817
92.809
92.816
92.852
92.865
92.81
92.815
92.854
92.907
92.861
92.857
92.861
92.857
92.904
92.907
92.905
92.863
92.899
92.912
92.944
93.003
92.952
92.953
92.952
92.952
92.953
92.951
92.997
92.957
92.992
93.006
93.037
93.01
92.989
93.051
93.041
93.05
92.999
93.043
93.093
93.048
93
92.997
93.044
93.09
93.052
93.04
93.052
93.083
93.058
93.078
93.107
93.123
93.111
93.162
93.165
93.115
93.205
93.125
93.196
93.177
93.195
93.178
93.193
93.224
93.242
93.182
93.234
93.189
93.227
93.239
93.271
93.289
93.271
93.288
93.272
93.244
93.31
93.299
93.262
93.341
93.314
93.339
93.316
93.338
93.317
93.336
93.363
93.385
93.364
93.34
93.403
93.438
93.406
93.392
93.358
93.433
93.411
93.431
93.413
93.473
93.465
93.427
93.46
93.476
93.462
93.474
93.463
93.517
93.515
93.472
93.51
93.477
93.505
93.525
93.551
93.573
93.51
93.521
93.555
93.569
93.558
93.523
93.553
93.571
93.6
93.619
93.602
93.617
93.648
93.621
93.6
93.619
93.647
93.623
93.643
93.714
93.653
93.661
93.655
93.615
93.694
93.67
93.691
93.717
93.738
93.721
93.691
93.761
93.745
93.759
93.747
93.756
93.794
93.805
93.752
93.796
93.804
93.751
93.798
93.801
93.799
93.8
93.801
93.843
93.852
93.798
93.846
93.848
93.892
93.853
93.842
93.896
93.894
93.851
93.889
93.9
93.935
93.905
93.93
93.954
93.977
93.958
93.973
94.006
94.021
94.009
94.017
94.101
94.072
94.098
94.075
94.095
94.122
94.144
94.125
94.186
94.178
94.184
94.224
94.234
94.226
94.188
94.221
94.281
94.319
94.242
94.263
94.29
94.266
94.288
94.268
94.285
94.315
94.29
94.311
94.383
94.365
94.38
94.368
94.423
94.421
94.422
94.422
94.466
94.474
94.421
94.513
94.522
94.514
94.476
94.509
94.481
94.505
94.53
94.507
94.572
94.561
94.526
94.556
94.62
94.61
94.574
94.605
94.623
94.607
94.621
94.609
94.664
94.662
94.618
94.657
94.668
94.658
94.667
94.66
94.711
94.667
94.658
94.667
94.658
94.713
94.665
94.661
94.664
94.707
94.715
94.708
94.714
94.754
94.72
94.704
94.718
94.75
94.768
94.752
94.812
94.761
94.759
94.806
94.81
94.807
94.764
94.801
94.815
94.802
94.768
94.797
94.818
94.844
94.868
94.847
94.911
94.9
94.865
94.895
94.87
94.936
94.88
94.881
94.883
94.878
94.93
94.928
94.978
94.933
94.928
94.931
94.975
94.89
94.964
94.945
94.961
94.948
94.959
94.996
94.963
94.992
94.967
94.943
94.964
94.992
95.013
94.995
95.055
95.004
95.001
95.005
95.045
95.058
94.999
95.052
95.05
95.099
95.056
95.049
95.099
95.102
95.053
95.051
95.052
95.098
95.057
95.093
95.062
95.088
95.111
95.091
95.109
95.139
95.159
95.141
95.156
95.098
95.148
95.151
95.193
95.158
95.14
95.158
95.186
95.164
95.135
95.163
95.182
95.259
95.145
95.199
95.243
95.205
95.192
95.25
95.245
95.249
95.2
95.242
95.252
95.242
95.206
95.236
95.212
95.277
95.269
95.273
95.273
95.315
95.328
95.313
95.375
95.317
95.325
95.315
95.373
95.275
95.361
95.331
95.404
95.386
95.356
95.382
95.405
95.385
95.403
95.387
95.4
95.39
95.398
95.437
95.449
95.44
95.447
95.487
95.452
95.436
95.495
95.491
95.494
95.447
95.486
95.546
95.492
95.494
95.491
95.541
95.497
95.535
95.502
95.531
95.552
95.533
95.55
95.536
95.547
95.538
95.546
95.585
95.596
95.541
95.542
95.588
95.594
95.544
95.54
95.59
95.592
95.591
95.545
95.586
95.596
95.587
95.595
95.635
95.6
95.63
95.605
95.625
95.655
95.628
95.652
95.63
95.65
95.633
95.648
95.635
95.692
95.689
95.645
95.683
95.696
95.685
95.694
95.687
95.739
95.695
95.686
95.741
95.738
95.695
95.685
95.695
95.731
95.748
95.686
95.74
95.739
95.74
95.693
95.734
95.745
95.781
95.75
95.776
95.801
95.778
95.753
95.773
95.804
95.776
95.755
95.771
95.805
95.774
95.802
95.777
95.8
95.825
95.805
95.821
95.854
95.825
95.805
95.821
95.855
95.824
95.851
95.827
95.849
95.83
95.846
95.833
95.844
95.835
95.842
95.883
95.847
95.878
95.851
95.874
95.901
95.831
95.891
95.886
95.889
95.934
95.895
95.929
95.945
95.932
95.943
95.934
95.987
95.943
95.933
95.99
95.985
95.944
95.932
95.991
95.985
95.991
95.938
95.985
95.99
96.032
95.996
95.981
96.04
96.035
95.993
96.03
96.044
96.031
96.043
96.033
96.041
96.081
96.047
96.029
96.045
96.077
96.05
96.073
96.054
96.069
96.058
96.065
96.061
96.062
96.11
96.067
96.106
96.071
96.102
96.121
96.106
96.117
96.108
96.115
96.111
96.066
96.106
96.118
96.108
96.115
96.11
96.113
96.112
96.112
96.16
96.117
96.155
96.122
96.15
96.126
96.146
96.13
96.143
96.18
96.147
96.13
96.143
96.133
96.187
96.142
96.132
96.19
96.137
96.185
96.189
96.187
96.187
96.142
96.179
96.242
96.185
96.236
96.237
96.238
96.236
96.239
96.235
96.24
96.188
96.233
96.24
96.235
96.285
96.289
96.238
96.283
96.291
96.284
96.29
96.239
96.329
96.299
96.276
96.344
96.331
96.297
96.278
96.342
96.333
96.342
96.333
96.294
96.327
96.346
96.329
96.345
96.331
96.39
96.339
96.382
96.392
96.382
96.346
96.376
96.398
96.377
96.397
96.425
96.403
96.372
96.401
96.421
96.453
96.423
96.404
96.418
96.456
96.421
96.453
96.423
96.451
96.379
96.442
96.434
96.441
96.482
96.447
96.476
96.499
96.478
96.45
96.473
96.454
96.469
96.505
96.473
96.455
96.469
96.505
96.472
96.502
96.476
96.498
96.479
96.543
96.535
96.494
96.53
96.545
96.486
96.536
96.541
96.535
96.495
96.527
96.549
96.574
96.555
96.522
96.601
96.576
96.601
96.53
96.593
96.584
96.593
96.537
96.586
96.637
96.594
96.583
96.593
96.584
96.64
96.591
96.587
96.637
96.641
96.59
96.587
96.637
96.688
96.597
96.628
96.649
96.63
96.648
96.631
96.646
96.679
96.652
96.627
96.697
96.683
96.648
96.63
96.694
96.685
96.693
96.686
96.692
96.688
96.691
96.688
96.69
96.736
96.697
96.73
96.702
96.725
96.754
96.727
96.751
96.729
96.749
96.731
96.748
96.78
96.753
96.728
96.75
96.778
96.802
96.733
96.746
96.735
96.791
96.79
96.79
96.791
96.79
96.744
96.782
96.798
96.783
96.798
96.783
96.797
96.784
96.797
96.831
96.803
96.826
96.808
96.821
96.86
96.824
96.858
96.826
96.902
96.835
96.846
96.836
96.845
96.885
96.851
96.879
96.856
96.875
96.86
96.871
96.91
96.875
96.86
96.824
96.903
96.929
96.86
96.871
96.91
96.876
96.859
96.873
96.909
96.924
96.911
96.874
96.907
96.926
96.91
96.923
96.912
96.921
96.914
96.872
96.909
96.877
96.904
96.882
96.9
96.933
96.903
96.93
96.906
96.927
96.908
96.925
97.005
96.984
96.954
96.933
96.997
96.991
96.947
96.987
96.998
96.99
96.995
97.04
96.999
97.036
97.003
97.032
97.054
97.036
97.051
97.039
97.048
97.089
97.052
97.085
97.104
97.088
97.053
97.036
97.098
97.093
97.096
97.095
97.094
97.144
97.1
97.091
97.098
97.14
97.103
97.135
97.108
97.131
97.112
97.127
97.163
97.178
97.119
97.121
97.216
97.179
97.165
97.129
97.161
97.227
97.219
97.177
97.215
97.181
97.211
97.232
97.214
97.229
97.217
97.226
97.267
97.278
97.222
97.221
97.272
97.227
97.219
97.225
97.269
97.23
97.264
97.234
97.26
97.285
97.263
97.235
97.259
97.286
97.263
97.283
97.266
97.28
97.316
97.285
97.311
97.289
97.307
97.292
97.304
97.343
97.308
97.291
97.353
97.349
97.303
97.344
97.355
97.394
97.312
97.336
97.315
97.333
97.318
97.33
97.368
97.335
97.316
97.332
97.366
97.336
97.314
97.333
97.365
97.337
97.313
97.334
97.316
97.284
97.264
97.281
97.314
97.286
97.263
97.282
97.313
97.287
97.262
97.236
97.21
97.185
97.207
97.189
97.156
97.138
97.105
97.086
97.102
97.137
97.058
97.079
97.061
97.029
97.01
96.979
97.006
96.935
96.901
96.884
96.898
96.84
96.794
96.788
96.792
96.743
96.689
96.643
96.634
96.644
96.54
96.537
96.539
96.491
96.391
96.385
96.343
96.333
96.248
96.228
96.246
96.183
96.097
96.078
96.049
95.981
95.947
95.883
95.892
95.839
95.792
95.741
95.692
95.688
95.599
95.538
95.545
95.448
95.394
95.395
95.348
95.298
95.204
95.148
95.15
95.103
95.007
94.999
94.961
94.903
94.818
94.755
94.674
94.652
94.583
94.506
94.529
94.463
94.386
94.317
94.288
94.223
94.146
94.122
94.055
94.022
93.963
93.924
93.871
93.781
93.772
93.646
93.668
93.604
93.527
93.462
93.474
93.376
93.284
93.233
93.233
93.147
93.088
93.053
92.951
92.954
92.864
92.812
92.769
92.72
92.632
92.622
92.545
92.439
92.401
92.348
92.265
92.252
92.178
92.113
92.084
92.066
92.039
91.977
91.946
91.845
91.846
91.846
91.803
91.756
91.711
91.708
91.668
91.577
91.528
91.529
91.485
91.481
91.4
91.386
91.357
91.298
91.265
91.209
91.215
91.169
91.125
91.121
91.124
91.122
91.081
91.033
90.991
90.945
90.943
90.863
90.847
90.779
90.753
90.778
90.754
90.776
90.756
90.816
90.804
90.732
90.711
90.772
90.76
90.771
90.719
90.764
90.767
90.722
90.679
90.674
90.638
90.586
90.59
90.586
90.59
90.586
90.59
90.585
90.59
90.627
90.596
90.58
90.678
90.675
90.678
90.675
90.72
90.764
90.726
90.716
90.767
90.722
90.72
90.763
90.809
90.811
90.809
90.852
90.857
90.852
90.857
90.852
90.857
90.853
90.815
90.805
90.856
90.853
90.773
90.8
90.819
90.843
90.865
90.845
90.905
90.977
90.999
91.062
91.176
91.244
91.27
91.288
91.358
91.381
91.404
91.425
91.491
91.56
91.543
91.557
91.631
91.608
91.628
91.695
91.723
91.74
91.768
91.786
91.813
91.831
91.859
91.877
91.904
91.923
91.949
91.969
92.037
92.064
92.083
92.067
92.123
92.119
92.12
92.163
92.167
92.165
92.166
92.167
92.164
92.168
92.12
92.164
92.21
92.214
92.166
92.166
92.208
92.216
92.164
92.168
92.163
92.169
92.163
92.169
92.162
92.17
92.162
92.17
92.162
92.255
92.217
92.25
92.222
92.245
92.226
92.199
92.266
92.25
92.265
92.252
92.263
92.253
92.219
92.205
92.175
92.201
92.222
92.203
92.263
92.211
92.255
92.303
92.261
92.255
92.303
92.305
92.303
92.305
92.302
92.348
92.351
92.391
92.4
92.392
92.399
92.479
92.454
92.431
92.495
92.482
92.494
92.526
92.542
92.528
92.54
92.529
92.582
92.622
92.588
92.617
92.593
92.656
92.689
92.658
92.687
92.704
92.734
92.707
92.688
92.746
92.741
92.744
92.787
92.791
92.789
92.789
92.791
92.787
92.836
92.792
92.831
92.753
92.778
92.756
92.818
92.809
92.772
92.762
92.769
92.764
92.767
92.766
92.722
92.761
92.727
92.714
92.724
92.716
92.679
92.669
92.677
92.671
92.631
92.667
92.636
92.62
92.59
92.573
92.544
92.483
92.535
92.491
92.484
92.492
92.398
92.438
92.402
92.348
92.308
92.257
92.258
92.216
92.165
92.167
92.121
92.077
92.029
91.986
91.937
91.938
91.851
91.841
91.765
91.746
91.679
91.651
91.634
91.563
91.541
91.475
91.449
91.386
91.356
91.298
91.223
91.162
91.173
91.08
91.034
90.991
90.944
90.902
90.855
90.813
90.724
90.677
90.676
90.595
90.499
90.5
90.416
90.365
90.327
90.278
90.239
90.15
90.104
90.103
90.063
90.016
89.934
89.882
89.846
89.755
89.712
89.668
89.665
89.587
89.533
89.5
89.407
89.407
89.367
89.321
89.281
89.235
89.195
89.149
89.109
89.063
89.023
88.978
88.937
88.892
88.852
88.807
88.806
88.728
88.676
88.642
88.592
88.596
88.553
88.472
88.463
88.432
88.38
88.347
88.335
88.346
88.297
88.222
88.208
88.22
88.17
88.136
88.126
88.135
88.049
88.005
88.005
87.966
87.96
87.965
87.922
87.881
87.878
87.842
87.796
87.758
87.79
87.763
87.747
87.723
87.743
87.688
87.657
87.685
87.621
87.6
87.579
87.598
87.542
87.513
87.5
87.473
87.496
87.476
87.416
87.43
87.417
87.39
87.414
87.393
87.372
87.353
87.369
87.394
87.372
87.314
87.363
87.361
87.323
87.357
87.288
87.348
87.335
87.308
87.293
87.305
87.295
87.265
87.253
87.263
87.255
87.222
87.252
87.226
87.21
87.185
87.169
87.221
87.177
87.176
87.178
87.136
87.173
87.102
87.126
87.144
87.128
87.103
87.087
87.101
87.051
87.055
87.052
87.054
87.054
87.015
87.011
87.013
87.012
86.974
87.008
87.017
87.009
86.977
87.005
87.019
87.007
86.979
87.003
87.022
87.042
87.025
87.001
87.061
87.047
87.059
87.087
87.101
87.127
87.105
87.123
87.146
87.164
87.149
87.161
87.19
87.202
87.231
87.243
87.272
87.246
87.269
87.326
87.354
87.329
87.351
87.37
87.393
87.411
87.395
87.409
87.436
87.489
87.521
87.531
87.562
87.573
87.564
87.571
87.643
87.658
87.645
87.656
87.724
87.742
87.766
87.745
87.802
87.831
87.805
87.828
87.885
87.875
87.883
87.916
87.925
87.919
87.923
87.959
87.966
88
88.009
88.041
88.051
88.082
88.055
88.079
88.136
88.165
88.14
88.162
88.221
88.248
88.224
88.245
88.306
88.332
88.348
88.334
88.385
88.381
88.423
88.467
88.467
88.508
88.472
88.503
88.554
88.59
88.598
88.591
88.676
88.683
88.675
88.723
88.721
88.762
88.766
88.803
88.85
88.889
88.855
88.884
88.939
88.931
88.938
89.012
89.068
89.059
89.067
89.1
89.111
89.141
89.156
89.182
89.24
89.23
89.239
89.271
89.284
89.312
89.368
89.36
89.367
89.401
89.412
89.483
89.503
89.485
89.501
89.527
89.586
89.615
89.631
89.657
89.716
89.665
89.709
89.793
89.801
89.835
89.846
89.877
89.891
89.919
89.896
89.915
89.981
90.005
89.985
90.042
90.075
90.086
90.078
90.083
90.121
90.168
90.17
90.208
90.219
90.248
90.266
90.288
90.354
90.254
90.342
90.347
90.426
90.44
90.427
90.479
90.558
90.572
90.56
90.529
90.597
90.622
90.599
90.62
90.643
90.665
90.686
90.669
90.724
90.761
90.769
90.805
90.813
90.849
90.858
90.852
90.897
90.944
90.901
90.981
90.953
91.02
91.003
91.017
91.047
91.063
91.091
91.067
91.129
91.16
91.174
91.205
91.219
91.207
91.216
91.21
91.214
91.296
91.266
91.292
91.311
91.379
91.363
91.376
91.449
91.386
91.44
91.478
91.529
91.529
91.527
91.572
91.616
91.664
91.622
91.659
91.711
91.667
91.704
91.758
91.752
91.8
91.8
91.843
91.848
91.887
91.853
91.882
91.9
91.926
91.947
91.97
91.994
92.015
92.041
92.017
92.081
92.068
92.08
92.112
92.17
92.162
92.169
92.206
92.217
92.207
92.259
92.257
92.301
92.349
92.307
92.343
92.356
92.387
92.404
92.389
92.445
92.482
92.451
92.477
92.498
92.522
92.503
92.518
92.549
92.607
92.645
92.654
92.691
92.7
92.737
92.704
92.777
92.713
92.769
92.808
92.86
92.859
92.859
92.903
92.908
92.948
92.869
92.894
92.96
92.946
92.958
92.948
93
93.043
93.005
93.038
93.053
93.083
93.057
93.079
93.104
93.126
93.108
93.122
93.154
93.17
93.157
93.167
93.204
93.215
93.206
93.168
93.246
93.266
93.249
93.263
93.295
93.311
93.254
93.259
93.343
93.314
93.339
93.317
93.379
93.371
93.333
93.367
93.38
93.37
93.377
93.372
93.419
93.424
93.374
93.463
93.472
93.422
93.42
93.467
93.469
93.425
93.461
93.52
93.511
93.52
93.511
93.565
93.561
93.566
93.516
93.56
93.565
93.517
93.558
93.612
93.608
93.612
93.564
93.562
93.607
93.657
93.57
93.601
93.663
93.653
93.618
93.647
93.667
93.649
93.621
93.644
93.626
93.684
93.68
93.637
93.677
93.64
93.674
93.687
93.721
93.69
93.674
93.686
93.678
93.683
93.68
93.681
93.727
93.685
93.723
93.689
93.719
93.648
93.709
93.745
93.714
93.697
93.711
93.744
93.76
93.746
93.757
93.748
93.711
93.744
93.76
93.746
93.757
93.748
93.755
93.795
93.76
93.79
93.808
93.793
93.806
93.795
93.804
93.797
93.802
93.843
93.807
93.794
93.804
93.84
93.809
93.836
93.813
93.833
93.86
93.836
93.857
93.839
93.855
93.885
93.903
93.888
93.856
93.884
93.904
93.931
93.908
93.928
93.956
93.93
93.953
93.933
93.95
93.936
93.948
93.983
93.997
93.941
93.944
93.987
93.993
93.988
93.991
93.99
93.99
93.991
93.989
94.036
93.995
94.031
93.999
94.027
94.048
94.029
94.046
94.031
94.044
94.078
94.093
94.124
94.097
94.12
94.101
94.116
94.194
94.171
94.147
94.167
94.239
94.176
94.186
94.178
94.229
94.275
94.234
94.225
94.277
94.278
94.276
94.279
94.321
94.33
94.276
94.324
94.327
94.28
94.319
94.331
94.364
94.382
94.321
94.375
94.372
94.375
94.372
94.375
94.372
94.42
94.379
94.414
94.429
94.415
94.428
94.416
94.472
94.468
94.471
94.513
94.477
94.463
94.476
94.509
94.526
94.555
94.531
94.55
94.581
94.508
94.572
94.606
94.622
94.608
94.621
94.609
94.62
94.61
94.664
94.663
94.663
94.663
94.662
94.709
94.714
94.709
94.713
94.71
94.757
94.762
94.757
94.762
94.802
94.859
94.809
94.853
94.86
94.854
94.86
94.854
94.949
94.959
94.904
94.952
94.956
94.998
94.962
94.992
95.012
95.039
95.017
94.99
95.06
95.089
95.065
95.039
95.108
95.094
95.106
95.095
95.15
95.149
95.15
95.149
95.149
95.196
95.2
95.242
95.206
95.191
95.25
95.245
95.294
95.298
95.294
95.344
95.346
95.299
95.339
95.352
95.385
95.403
95.386
95.448
95.439
95.494
95.492
95.448
95.485
95.5
95.532
95.506
95.527
95.51
95.522
95.56
95.525
95.603
95.58
95.601
95.583
95.645
95.683
95.65
95.678
95.701
95.726
95.705
95.676
95.748
95.732
95.746
95.734
95.79
95.789
95.743
95.783
95.748
95.825
95.851
95.828
95.848
95.83
95.846
95.879
95.85
95.875
95.9
95.878
95.943
95.934
95.941
95.982
95.992
95.984
95.944
95.98
95.995
96.028
95.999
96.024
96.049
96.028
96.046
96.077
96.096
96.127
96.1
96.123
96.15
96.126
96.146
96.176
96.197
96.179
96.147
96.175
96.244
96.231
96.195
96.181
96.193
96.229
96.244
96.279
96.248
96.274
96.252
96.271
96.348
96.328
96.299
96.324
96.396
96.38
96.346
96.376
96.397
96.426
96.401
96.422
96.451
96.425
96.448
96.429
96.445
96.478
96.45
96.474
96.5
96.524
96.504
96.474
96.547
96.531
96.544
96.533
96.589
96.636
96.547
96.624
96.652
96.627
96.602
96.577
96.646
96.68
96.65
96.629
96.648
96.631
96.645
96.634
96.69
96.689
96.689
96.69
96.688
96.738
96.694
96.686
96.739
96.741
96.739
96.741
96.738
96.789
96.744
96.736
96.743
96.784
96.749
96.779
96.754
96.821
96.812
96.771
96.808
96.821
96.812
96.818
96.815
96.816
96.864
96.82
96.907
96.878
96.857
96.874
96.907
96.878
96.904
96.881
96.901
96.931
96.905
96.927
96.956
96.978
96.912
96.921
96.962
96.973
96.964
96.923
97.007
96.982
97.003
96.985
97
97.035
97.004
97.031
97.055
97.035
97.052
97.038
97.049
97.088
97.053
97.084
97.104
97.04
97.047
97.089
97.099
97.092
97.05
97.087
97.101
97.137
97.106
97.086
97.103
97.089
97.1
97.091
97.098
97.14
97.103
97.088
97.1
97.091
97.098
97.093
97.096
97.142
97.102
97.089
97.147
97.098
97.092
97.099
97.138
97.153
97.091
97.146
97.145
97.1
97.09
97.1
97.138
97.154
97.091
97.146
97.145
97.146
97.098
97.092
97.097
97.14
97.104
97.087
97.15
97.095
97.095
97.142
97.102
97.136
97.108
97.131
97.16
97.133
97.111
97.128
97.163
97.13
97.113
97.079
97.11
97.129
97.114
97.125
97.118
97.121
97.121
97.119
97.171
97.123
97.119
97.073
97.162
97.179
97.118
97.074
97.161
97.18
97.117
97.123
97.166
97.175
97.121
97.119
97.217
97.131
97.158
97.135
97.155
97.186
97.158
97.183
97.161
97.18
97.164
97.13
97.206
97.237
97.21
97.186
97.206
97.237
97.209
97.187
97.205
97.238
97.208
97.187
97.204
97.191
97.201
97.242
97.205
97.238
97.209
97.235
97.259
97.239
97.255
97.242
97.3
97.299
97.25
97.294
97.302
97.297
97.3
97.299
97.298
97.301
97.297
97.302
97.343
97.31
97.288
97.31
97.337
97.363
97.337
97.315
97.332
97.415
97.341
97.359
97.389
97.413
97.343
97.404
97.351
97.397
97.358
97.39
97.412
97.392
97.363
97.386
97.464
97.442
97.415
97.389
97.413
97.438
97.418
97.433
97.471
97.436
97.468
97.438
97.466
97.488
97.471
97.436
97.516
97.445
97.507
97.501
97.506
97.55
97.512
97.544
97.523
97.533
97.529
97.528
97.582
97.529
97.532
97.524
97.537
97.52
97.589
97.523
97.586
97.526
97.583
97.529
97.58
97.532
97.578
97.534
97.623
97.591
97.574
97.586
97.626
97.588
97.576
97.584
97.628
97.635
97.584
97.576
97.635
97.629
97.589
97.524
97.632
97.584
97.627
97.588
97.671
97.647
97.62
97.643
97.671
97.695
97.674
97.644
97.67
97.696
97.673
97.645
97.717
97.656
97.659
97.659
97.656
97.709
97.661
97.705
97.713
97.708
97.71
97.758
97.715
97.754
97.719
97.751
97.77
97.802
97.773
97.799
97.776
97.797
97.779
97.795
97.829
97.848
97.831
97.75
97.819
97.857
97.822
97.854
97.825
97.851
97.876
97.807
97.865
97.866
97.862
97.82
97.902
97.931
97.853
97.876
97.901
97.931
97.901
97.931
97.902
97.93
97.903
97.929
97.904
97.977
97.912
97.969
97.919
97.962
97.973
97.963
97.972
98.013
97.979
98.007
97.984
98.002
98.037
98.004
98.034
98.055
98.039
98.051
98.092
98.054
98.089
98.105
98.141
98.059
98.083
98.11
98.137
98.112
98.134
98.163
98.188
98.117
98.179
98.174
98.178
98.174
98.177
98.175
98.176
98.176
98.176
98.224
98.231
98.225
98.182
98.219
98.236
98.22
98.235
98.222
98.185
98.216
98.239
98.267
98.244
98.262
98.297
98.265
98.294
98.268
98.291
98.27
98.289
98.321
98.342
98.323
98.34
98.326
98.338
98.328
98.336
98.378
98.39
98.38
98.34
98.374
98.393
98.377
98.391
98.379
98.389
98.43
98.394
98.425
98.399
98.421
98.451
98.424
98.448
98.476
98.501
98.43
98.442
98.481
98.496
98.484
98.493
98.535
98.498
98.53
98.503
98.526
98.555
98.53
98.552
98.484
98.542
98.591
98.547
98.537
98.545
98.588
98.55
98.534
98.596
98.593
98.595
98.643
98.6
98.589
98.598
98.64
98.652
98.642
98.65
98.644
98.649
98.694
98.654
98.689
98.708
98.691
98.755
98.749
98.753
98.8
98.808
98.801
98.807
98.803
98.806
98.853
98.861
98.854
98.86
98.855
98.859
98.856
98.858
98.857
98.857
98.907
98.864
98.851
98.911
98.86
98.904
98.916
98.904
98.965
98.912
98.958
98.968
98.909
98.96
98.966
98.96
98.966
98.96
99.014
99.017
99.015
99.017
99.064
99.024
99.057
99.079
99.059
99.078
99.11
99.133
99.062
99.124
99.119
99.124
99.12
99.123
99.17
99.18
99.121
99.172
99.178
99.172
99.178
99.222
99.234
99.223
99.233
99.223
99.232
99.224
99.182
99.218
99.188
99.212
99.243
99.214
99.24
99.266
99.245
99.262
99.299
99.265
99.246
99.211
99.243
99.264
99.247
99.211
99.244
99.264
99.247
99.26
99.201
99.201
99.253
99.206
99.198
99.203
99.25
99.159
99.238
99.17
99.178
99.123
99.119
99.125
99.118
99.126
99.067
99.071
99.017
99.016
99.015
99.017
98.964
98.962
98.963
98.915
98.856
98.859
98.855
98.811
98.749
98.755
98.748
98.707
98.643
98.651
98.594
98.595
98.544
98.54
98.494
98.485
98.444
98.382
98.387
98.383
98.289
98.272
98.239
98.218
98.188
98.165
98.138
98.111
98.039
97.955
97.98
97.957
97.882
97.897
97.885
97.797
97.731
97.691
97.679
97.639
97.627
97.588
97.576
97.489
97.422
97.383
97.418
97.387
97.271
97.227
97.267
97.184
97.113
97.078
97.109
96.988
96.95
96.936
96.948
96.891
96.797
96.785
96.795
96.74
96.692
96.641
96.589
96.588
96.541
96.489
96.392
96.43
96.397
96.332
96.295
96.281
96.199
96.176
96.15
96.126
96.101
96.029
96.045
95.985
95.943
95.934
95.941
95.889
95.841
95.791
95.786
95.746
95.687
95.647
95.588
95.549
95.398
95.437
95.403
95.341
95.303
95.29
95.302
95.291
95.209
95.188
95.207
95.19
95.114
95.088
95.112
95.045
95.012
94.949
94.958
94.951
94.911
94.9
94.865
94.85
94.773
94.793
94.777
94.745
94.683
94.644
94.68
94.648
94.631
94.599
94.583
94.596
94.541
94.542
94.543
94.495
94.494
94.448
94.489
94.453
94.395
94.399
94.397
94.352
94.347
94.306
94.298
94.304
94.299
94.213
94.243
94.218
94.195
94.17
94.146
94.167
94.149
94.121
94.145
94.125
94.052
94.071
94.099
94.075
94.05
94.028
94.046
94.031
93.999
93.984
93.995
93.987
93.993
93.989
93.99
93.991
93.944
93.942
93.942
93.944
93.896
93.895
93.894
93.941
93.899
93.892
93.897
93.849
93.845
93.85
93.844
93.851
93.799
93.845
93.849
93.802
93.753
93.752
93.796
93.759
93.746
93.759
93.746
93.714
93.696
93.713
93.653
93.662
93.609
93.611
93.609
93.611
93.522
93.554
93.527
93.461
93.432
93.455
93.437
93.363
93.385
93.321
93.333
93.278
93.238
93.228
93.194
93.179
93.106
93.08
93.061
93.032
92.972
92.935
92.925
92.888
92.836
92.791
92.789
92.702
92.693
92.612
92.64
92.572
92.502
92.476
92.456
92.429
92.325
92.285
92.321
92.245
92.183
92.151
92.137
92.062
91.999
91.968
91.953
91.88
91.859
91.793
91.764
91.705
91.629
91.61
91.584
91.523
91.448
91.387
91.355
91.3
91.221
91.206
91.176
91.077
91.078
91.037
90.987
90.949
90.855
90.855
90.771
90.72
90.638
90.627
90.595
90.541
90.463
90.448
90.42
90.362
90.288
90.23
90.198
90.144
90.108
90.058
89.978
90.007
89.941
89.876
89.851
89.791
89.761
89.707
89.713
89.627
89.579
89.542
89.532
89.502
89.405
89.409
89.324
89.318
89.243
89.227
89.201
89.103
89.068
89.059
89.027
88.974
88.901
88.884
88.859
88.801
88.733
88.672
88.686
88.595
88.515
88.465
88.43
88.382
88.305
88.293
88.226
88.204
88.146
88.078
88.06
87.996
87.935
87.909
87.894
87.789
87.803
87.752
87.757
87.715
87.673
87.632
87.628
87.632
87.551
87.544
87.511
87.501
87.433
87.414
87.432
87.377
87.348
87.296
87.264
87.253
87.225
87.249
87.19
87.125
87.106
87.084
87.066
87.004
86.982
86.962
86.942
86.921
86.864
86.874
86.866
86.796
86.782
86.756
86.779
86.683
86.69
86.647
86.645
86.61
86.563
86.567
86.525
86.487
86.443
86.407
86.4
86.295
86.271
86.257
86.192
86.175
86.075
86.089
86.076
86.051
85.997
85.97
85.955
85.932
85.839
85.846
85.803
85.803
85.729
85.719
85.691
85.64
85.611
85.562
85.532
85.447
85.41
85.368
85.294
85.248
85.215
85.17
85.137
85.129
85.063
85.009
85.021
84.974
84.942
84.896
84.864
84.855
84.827
84.778
84.749
84.738
84.676
84.656
84.638
84.58
84.559
84.504
84.481
84.429
84.403
84.353
84.325
84.277
84.211
