357.72
357.43
357.32
357.24
356.95
357.03
356.78
356.64
356.58
356.45
356.39
356.09
355.99
356.08
355.82
355.51
355.43
355.33
355.23
354.96
354.84
354.78
354.48
354.21
354.09
354.2
353.75
353.44
353.36
353.08
352.97
352.72
352.24
352.31
352.07
351.58
351.32
351.2
350.96
350.65
350.4
350.27
350.04
349.72
349.49
349.35
349.13
348.63
348.38
348.26
348.2
347.74
347.46
347.37
347.11
346.83
346.56
346.46
346.05
345.73
345.5
345.36
345.15
344.83
344.78
344.49
344.41
344.15
344.04
343.97
343.7
343.44
343.5
343.29
343.13
342.94
342.61
342.74
342.46
342.21
341.93
342.01
341.94
341.51
341.4
341.49
341.25
340.97
340.72
340.77
340.73
340.44
340.37
340.27
340.03
339.91
339.7
339.55
339.36
339.04
338.84
338.53
338.48
338.2
337.96
337.69
337.6
337.52
337.27
337.17
336.94
336.82
336.77
336.49
336.41
336.17
336.06
335.84
335.71
335.51
335.37
335.34
335.04
334.99
334.88
334.98
334.73
334.47
334.23
334.44
334.26
334.09
334.09
333.93
333.92
333.62
333.41
333.43
333.26
332.94
332.91
332.78
332.58
332.44
332.26
332.1
332.09
331.79
331.89
331.81
331.57
331.47
331.25
331.13
331.08
330.82
330.74
330.66
330.57
330.34
330.23
330.18
329.91
329.84
329.9
330.01
329.76
329.82
329.77
329.81
329.62
329.63
329.63
329.63
329.63
329.32
329.59
329.51
329.27
329.33
329.28
329.48
329.46
329.32
329.44
329.49
329.45
329.33
329.28
329.32
329.14
329.15
329.14
329.14
329.14
328.99
329.12
329.16
329.13
329
329.11
329.17
329.12
329.16
329.28
329.33
329.28
329.32
329.29
329.47
329.47
329.32
329.3
329.31
329.3
329.16
329.28
329.48
329.46
329.47
329.46
329.62
329.64
329.47
329.62
329.79
329.79
329.64
329.92
329.99
329.78
329.81
329.78
329.8
329.79
329.8
329.79
329.8
329.94
329.82
329.92
329.99
330.08
330
329.92
330.3
330.27
330.14
330.41
330.49
330.57
330.5
330.55
330.66
330.56
330.65
330.57
330.8
330.76
330.64
330.74
330.81
330.75
330.65
330.73
330.81
330.9
330.83
330.88
331.14
330.92
330.96
331.08
331.13
331.24
331.14
331.22
331.31
331.23
331.3
331.24
331.29
331.4
331.3
331.39
331.32
331.38
331.33
331.37
331.49
331.38
331.48
331.55
331.64
331.56
331.48
331.55
331.64
331.56
331.63
331.57
331.77
331.6
331.59
331.92
331.94
332.08
331.95
332.06
332.12
332.23
332.13
332.21
332.45
332.4
332.44
332.41
332.59
332.75
332.61
332.73
332.93
333.07
332.95
333.05
333.12
333.06
333.11
333.38
333.46
333.23
333.43
333.57
333.76
333.76
333.6
333.74
333.93
334.08
333.95
334.06
334.12
334.22
334.13
334.21
334.3
334.37
334.32
334.52
334.51
334.67
334.69
334.66
334.85
334.68
334.84
334.85
335
334.71
334.96
335.21
335.16
335.21
335.16
335.35
335.51
335.53
335.36
335.34
335.68
335.54
335.66
335.56
335.8
335.75
335.63
335.9
335.98
336.07
335.99
335.9
336.14
336.25
336.15
336.24
336.47
336.43
336.31
336.42
336.63
336.61
336.79
336.64
336.76
336.83
336.6
336.65
336.44
336.47
336.28
336.13
335.93
335.95
335.3
335.08
334.65
334.39
334.14
334.04
333.98
333.72
333.94
333.91
334.09
333.93
334.07
334.11
334.38
334.47
334.23
334.29
334.07
334.11
333.92
334.08
334.1
334.24
334.27
334.09
334.25
334.27
334.4
334.45
334.25
334.42
334.59
334.6
334.12
334.22
334.3
334.22
334.45
334.41
334.6
334.74
334.62
334.57
334.62
334.73
334.79
334.89
334.81
334.87
334.98
334.88
335.13
335.22
335.31
335.39
335.48
335.55
335.65
335.56
335.8
335.91
335.98
336.07
336.15
336.24
336.32
336.4
336.5
336.57
336.66
336.58
336.81
336.77
336.97
336.96
336.96
337.12
337.14
336.97
337.11
337.31
337.29
337.31
337.29
337.63
337.65
337.8
337.67
337.94
338.03
337.95
338.02
338.28
338.38
338.45
338.39
338.43
338.56
338.61
338.57
338.6
338.74
338.93
338.93
338.77
339.08
338.81
339.04
338.84
339.01
339.19
339.03
339.17
339.04
338.84
338.69
338.82
338.7
338.81
338.72
338.64
338.71
338.49
338.51
338.65
338.69
338.5
338.5
338.51
338.65
338.69
338.49
338.51
338.49
338.35
338.3
338.35
338.3
338.35
338.15
338.33
338.33
338.17
338.14
338.17
338.3
338.19
338.12
338.35
338.31
338.19
338.29
338.37
338.46
338.54
338.46
338.54
338.47
338.69
338.66
338.69
338.82
339.03
339.01
338.86
339.15
339.22
339.16
339.38
339.67
339.9
339.87
339.9
340.19
340.26
340.36
340.44
340.54
340.77
340.89
341.11
341.09
341.11
341.26
341.29
341.26
341.44
341.29
341.25
341.46
341.44
341.62
341.46
341.44
341.62
341.63
341.61
341.63
341.77
341.99
341.8
341.96
341.82
342.11
342.02
342.09
342.04
342.08
341.72
341.37
341.36
341.36
341.36
341.19
341.18
341.35
341.38
341.34
341.54
341.36
341.36
341.36
341.69
341.56
341.51
341.56
341.68
341.73
341.69
341.73
341.86
341.74
341.84
341.76
341.99
341.96
341.98
342.13
342.32
342.33
342.15
342.31
342.5
342.84
342.7
342.98
343.07
343.49
343.62
343.83
343.99
344.18
344.51
344.56
344.69
344.9
345.05
344.92
345.2
345.29
345.38
345.47
345.56
345.49
345.38
345.47
345.72
345.51
345.52
345.52
345.35
345.5
345.37
345.49
345.38
345.47
345.56
345.48
345.72
345.68
345.71
345.86
345.89
346.03
345.91
346.18
346.28
346.36
346.3
346.35
346.48
346.36
346.3
346.35
346.47
346.53
346.48
346.86
346.88
346.85
346.88
346.85
347.05
346.87
346.87
346.86
347.04
346.88
346.85
346.71
346.83
346.73
346.65
346.72
346.83
346.9
346.84
346.72
346.99
347.1
346.83
346.73
346.82
346.41
346.09
345.7
345.53
345.02
344.45
344.28
344.25
344.29
344.08
344.1
343.91
344.25
344.12
344.07
343.95
344.22
344.15
344.04
344.14
344.05
343.96
343.71
343.6
343.36
343.07
342.99
343.06
343
342.89
342.82
343.04
343.02
342.87
343
342.89
342.82
342.72
342.64
342.71
342.81
342.72
342.8
342.9
342.98
342.91
342.8
343.06
343
342.89
342.82
342.88
342.99
342.9
342.98
343.24
343.18
343.07
343
343.22
343.03
343.19
343.39
343.38
343.39
343.38
343.56
343.56
343.56
343.39
343.54
343.74
343.73
343.74
343.74
344.07
344.28
344.26
344.61
344.8
344.97
345.16
345.33
345.51
345.69
345.7
345.86
345.89
346.2
346.1
346.18
346.46
346.38
346.45
346.55
346.63
346.39
346.6
346.76
346.96
347.12
347.15
347.29
347.51
347.83
347.89
348.17
348.27
348.18
348.43
348.38
348.6
348.92
348.81
349.08
349.19
349.09
349.01
349.07
349.37
349.28
349.19
349.09
349.18
349.27
349.19
349.26
349.2
349.25
349.39
349.43
349.74
349.47
349.53
349.65
349.72
349.66
349.71
349.67
349.87
349.87
349.69
349.85
349.88
350.03
349.9
350.02
350.09
350.03
349.91
350.01
350.09
350.19
350.11
350.18
350.12
350.34
350.33
350.33
350.5
350.35
350.49
350.54
350.67
350.55
350.65
350.57
350.47
350.73
350.67
350.72
350.85
350.91
351.03
350.92
351.19
351.14
351.01
351.12
351.19
351.13
351.18
351.32
351.54
351.53
351.36
351.34
351.52
351.71
351.54
351.7
351.73
351.7
351.55
351.69
351.74
351.7
351.73
351.7
351.73
351.88
351.75
351.86
351.93
352.05
352.12
352.06
352.11
352.24
352.13
352.22
352.32
352.23
352.14
352.22
352.5
352.6
352.34
352.39
352.52
352.4
352.51
352.42
352.67
352.45
352.47
352.63
352.66
352.64
352.65
352.82
352.67
352.8
352.69
352.78
352.88
352.62
352.85
353
352.87
352.98
353.06
352.99
353.05
353
353.04
353.18
353.23
353.36
353.25
353.17
353.42
353.55
353.26
353.33
353.45
353.35
353.44
353.53
353.63
353.72
353.64
353.7
353.83
353.72
353.82
353.73
353.98
353.94
353.97
354.12
353.99
354.28
354.03
354.24
354.24
354.23
354.42
354.25
354.41
354.27
354.39
354.46
354.58
354.48
354.39
354.46
354.57
354.48
354.56
354.67
354.75
354.86
354.76
354.67
354.92
354.88
354.74
355.04
354.95
355.03
355.14
355.04
355.3
355.26
355.11
355.24
355.31
355.26
355.29
355.27
355.64
355.5
355.43
355.68
355.63
355.86
355.66
355.66
355.65
356.02
355.7
355.62
355.87
356.01
356.06
356.02
356.23
356.23
356.23
356.41
356.6
356.61
356.6
356.62
356.78
357
356.63
356.77
356.82
356.95
356.84
356.93
356.86
356.92
357.06
357.11
357.25
357.12
357.24
357.31
357.43
357.32
357.42
357.51
357.44
357.49
357.45
357.48
357.64
357.5
357.63
357.69
357.82
357.88
357.83
358.05
358.22
358.24
358.41
358.26
358.4
358.46
358.41
358.63
358.98
359.03
358.99
359.02
359.36
359.07
359.14
359.26
359.15
359.25
359.34
359.26
359.51
359.3
359.47
359.51
359.47
359.7
359.49
359.68
359.51
359.48
359.5
359.49
359.31
359.29
359.13
359.27
359.32
359.28
359.5
359.49
359.31
359.47
359.51
359.66
359.53
359.64
359.54
359.45
359.71
359.66
359.7
359.85
359.72
359.65
359.71
359.84
359.91
359.85
359.9
360.04
360.1
360.05
360.1
360.24
360.3
360.25
360.29
360.25
360.46
360.47
360.28
360.62
360.69
360.63
360.68
360.46
360.47
360.64
360.67
360.83
360.88
361.02
360.9
361
361.1
360.83
361.06
361.04
361.24
361.25
361.24
361.44
361.44
361.62
361.47
361.42
362.01
362.42
362.43
362.6
362.64
362.61
362.63
362.79
362.84
362.8
362.84
362.8
363.02
363.02
362.83
362.99
363.22
363.02
363.01
363.21
363.22
363.21
363.22
363.21
363.4
363.61
363.43
363.58
363.64
363.77
363.84
363.96
364.05
363.97
364.04
364.16
364.06
364.14
364.26
364.34
364.28
364.14
364.45
364.55
364.84
364.59
364.62
364.78
364.83
364.97
364.85
364.77
365.02
364.99
364.83
364.97
365.04
365.16
365.05
364.96
365.23
365
365.19
365.03
365.16
365.43
365.19
365.4
365.22
365.19
365.4
365.22
365.37
365.44
365.37
365.25
365.16
365.43
365.38
365.43
365.38
365.43
365.38
365.42
365.2
365.21
365.2
365.4
365.41
365.21
365.38
365.24
365.17
365.42
365.2
365.39
365.23
364.99
365.2
365.02
365.17
365.23
364.99
365.01
365
365.01
365
364.82
364.97
364.85
364.77
364.84
364.77
364.65
364.75
364.66
364.55
364.65
364.56
364.64
364.38
364.42
364.58
364.26
364.34
364.46
364.36
364.26
364.16
364.25
364.35
364.27
364.15
364.25
364.17
364.06
363.96
363.86
363.95
363.87
363.75
364.04
363.98
363.85
363.78
363.65
363.76
363.66
363.75
363.49
363.53
363.68
363.36
363.46
363.56
363.28
363.15
363.45
363.38
363.25
363.18
363.06
363.17
363.07
362.97
363.05
362.98
362.86
362.79
362.84
362.8
362.47
362.57
362.66
362.58
362.47
362.39
362.45
362.4
362.44
362.41
362.43
362.42
362.24
362.22
362.6
362.64
362.41
362.44
362.41
362.44
362.22
362.23
362.22
362.23
362.03
362.03
362.03
362.03
361.66
361.8
361.68
361.78
361.7
361.58
361.51
361.56
361.52
361.37
361.33
361.54
361.36
361.14
361.53
361.36
361.15
360.96
361.13
360.98
360.57
360.55
360.39
360.16
360.19
359.97
360.17
359.99
359.79
359.6
359.58
359.59
359.59
359.41
359.39
359.4
359.21
359.19
359.22
359.01
359.01
358.83
359.17
359.05
358.97
358.86
358.95
359.06
358.78
358.67
358.94
358.89
358.75
358.7
358.73
358.71
358.54
358.69
358.56
358.68
358.57
358.49
358.56
358.5
358.36
358.31
358.35
358.32
358.34
358.33
358.33
358.34
358.14
358.32
358.34
358.33
358.15
358.49
358.56
358.68
358.57
358.49
358.56
358.68
358.4
358.46
358.77
358.86
358.6
358.64
358.79
358.65
358.6
358.64
358.79
358.84
358.8
358.65
358.78
358.84
358.79
358.83
358.98
358.85
358.79
358.84
359.16
359.06
359.14
359.07
359.31
359.29
359.12
359.09
359.29
359.31
359.29
359.31
359.29
359.67
359.34
359.45
359.53
359.64
359.55
359.62
359.56
359.61
359.76
359.62
359.56
359.79
359.78
359.6
359.94
359.83
359.93
359.84
359.92
360.03
360.11
360.22
360.31
360.24
360.3
360.25
360.47
360.46
360.46
360.65
360.67
360.84
360.69
360.82
360.89
361.01
360.72
360.79
360.92
360.98
360.93
360.79
360.91
360.98
361.11
361
360.91
361.17
361.13
361.16
361.14
361.15
361.33
361.17
361.31
361
361.27
361.23
361.44
361.44
361.25
361.42
361.45
361.43
361.44
361.44
361.62
361.66
361.43
361.63
361.46
361.61
361.66
361.62
361.83
361.84
361.65
361.81
361.85
361.82
361.84
361.83
362.02
362.22
361.86
361.99
361.88
361.97
362.08
361.98
362.07
362.18
362.27
362.37
362.47
362.56
362.3
362.34
362.68
362.38
362.46
362.57
362.48
362.56
362.68
362.57
362.85
362.61
362.63
362.8
362.83
362.81
362.64
362.79
363.03
363.01
363.02
362.83
362.99
363.04
362.81
363.01
363.2
363.23
363.02
363.02
363.01
363.2
363.22
363.21
363.4
363.42
363.22
363.39
363.43
363.4
363.42
363.4
363.42
363.59
363.45
363.57
363.47
363.55
363.67
363.74
363.87
363.75
363.67
363.74
363.87
363.93
363.89
363.74
364.06
364.15
363.89
363.92
364.09
364.12
364.1
364.11
364.29
364.13
364.28
364.14
364.26
364.16
364.25
364.36
364.45
364.37
364.25
364.35
364.26
364.34
364.46
364.36
364.45
364.37
364.43
364.38
364.42
364.58
364.44
364.56
364.64
364.57
364.63
364.58
364.8
364.81
364.61
364.79
364.82
364.98
364.65
364.75
365.04
364.79
364.81
364.98
365.02
364.99
365.01
365.19
365.22
365.19
365.02
365.17
365.23
365.18
365.03
365.16
365.24
364.99
365.2
365.21
365.2
365.4
365.22
365.19
365.4
365.59
365.24
365.36
365.44
365.37
365.25
365.54
365.48
365.34
365.47
365.53
365.67
365.55
365.66
365.37
365.62
365.59
365.43
365.57
365.82
365.79
365.63
365.59
365.62
365.78
365.64
365.76
365.85
365.77
365.65
365.75
365.85
365.95
365.87
365.75
365.86
365.94
365.87
365.93
366.07
365.94
366.06
366.15
366.26
366.16
366.25
366.36
366.45
366.37
366.44
366.38
366.62
366.79
366.83
366.99
367.03
367.37
367.27
367.17
367.26
367.37
367.46
367.38
367.45
367.58
367.66
367.78
367.86
367.79
367.85
367.99
368.06
368
368.05
368.01
367.85
367.99
368.06
368
368.05
368.01
368.04
368.21
368.06
368.19
368.08
368.17
368.28
367.99
368.05
368.19
368.07
368.18
368.28
368.19
368.26
368.2
368.25
368.4
368.27
368.38
368.29
368.37
368.49
368.38
368.48
368.39
368.66
368.43
368.43
368.63
368.64
368.44
368.61
368.47
368.58
368.69
368.59
368.69
368.4
368.65
368.43
368.63
368.64
368.63
368.64
368.63
368.83
368.66
368.61
368.85
368.83
368.85
368.83
368.85
368.64
368.82
368.86
368.63
368.83
369.04
368.86
368.82
368.86
369.01
368.88
368.8
368.88
369
368.9
368.79
369.08
368.82
368.86
369.01
369.07
369.02
369.07
369.02
369.25
369.05
369.04
369.05
369.23
369.08
369.01
369.08
369.21
369.1
368.99
369.09
369.19
369.49
369.42
369.68
369.83
369.89
369.65
369.86
369.87
369.86
369.87
370.05
369.9
370.02
370.11
370.03
370.3
370.06
370.27
370.28
370.27
370.28
370.27
370.28
370.47
370.49
370.47
370.68
370.88
371.29
371.13
371.26
371.35
371.07
371.31
371.11
371.28
371.52
371.12
371.27
371.53
371.3
371.31
371.3
371.5
371.33
371.47
371.55
371.48
371.55
371.48
371.54
371.68
371.76
371.49
371.53
371.69
371.94
371.72
371.72
371.72
371.53
371.89
371.77
371.86
371.79
371.85
372.19
371.89
371.96
371.9
371.76
372.07
372.2
372.08
371.99
372.06
372.39
372.3
372.19
372.28
372.4
372.49
372.42
372.47
372.62
372.68
372.83
372.7
372.81
372.71
372.8
372.92
373.01
372.93
372.8
372.91
373.01
373.12
373.03
373.11
373.24
373.32
373.44
373.34
373.43
373.54
373.44
373.53
373.65
373.55
373.63
373.56
373.62
373.77
373.64
373.56
373.62
373.77
373.64
373.75
374.04
373.79
373.81
373.8
373.8
374.2
374.04
373.99
374.03
374.39
374.28
374.18
374.46
374.41
374.25
374.4
374.47
374.8
374.71
374.78
375.11
375.02
375.3
375.66
375.74
375.86
375.76
375.85
376.16
376.09
375.96
376.07
376.37
376.71
376.61
376.69
376.82
376.9
376.84
376.69
376.82
377.1
377.06
376.89
377.05
377.11
377.06
376.9
377.04
377.12
377.05
377.1
377.26
377.12
377.25
377.34
377.26
377.13
377.24
377.14
377.43
377.38
377.42
377.59
377.63
377.6
377.43
377.58
377.84
377.82
377.83
378.03
378.06
378.03
378.05
378.04
378.04
378.25
378.26
378.25
378.26
378.46
378.48
378.46
378.68
378.7
378.48
378.47
378.67
378.7
378.47
378.68
378.9
378.71
378.67
378.91
378.9
378.91
378.9
378.91
378.9
378.91
378.9
378.91
379.1
379.14
378.9
379.11
379.13
379.31
379.16
379.28
379.38
379.49
379.4
379.27
379.39
379.48
379.41
379.26
379.4
379.67
379.65
379.66
379.86
379.88
380.28
380.33
380.5
380.34
380.48
380.36
380.67
380.6
380.66
380.81
380.88
380.82
380.87
381.03
381.1
381.04
380.89
381.02
381.11
381.24
381.13
381.02
381.11
381.23
381.13
381.22
381.35
381.43
381.36
381.22
381.55
381.67
381.36
381.42
381.58
381.64
381.59
381.43
381.57
381.45
381.55
381.46
381.74
381.71
381.32
381.46
381.54
381.47
381.33
381.05
381.08
381.06
380.67
380.61
380.65
380.42
380.21
380.19
380
380.17
379.82
379.32
379.14
378.9
378.5
378.45
378.29
378.23
378.08
378.01
378.07
378.02
377.66
377.57
377.25
377.13
376.84
376.29
375.98
375.66
375.34
375.22
375.33
375.23
375.12
374.82
374.88
375.03
374.9
374.81
374.89
375.02
374.71
374.58
374.5
374.37
374.1
373.94
373.88
373.73
373.48
373.3
373.26
373.1
372.86
372.67
372.84
372.88
372.85
372.68
372.83
372.89
372.65
372.66
372.85
372.68
372.83
372.7
372.62
372.88
372.85
372.87
372.86
373.06
373.08
372.86
373.06
373.28
373.09
373.25
373.32
373.25
373.31
373.25
373.31
373.25
373.5
373.28
373.47
373.5
373.48
373.5
373.67
373.33
373.62
373.58
373.61
373.79
373.62
373.58
373.8
374.01
373.81
373.8
373.8
374.01
373.62
373.77
373.83
373.98
373.85
373.96
374.06
374.17
373.87
373.94
374.28
373.98
374.04
374
374.02
374.2
374.04
374.19
374.25
374.2
374.24
374.21
374.43
374.44
374.42
374.45
374.42
374.65
374.44
374.43
374.63
374.66
374.44
374.63
374.66
374.63
374.46
374.61
374.67
374.62
374.67
374.62
374.66
374.82
374.69
374.8
374.9
374.81
374.89
374.82
375.08
375.05
374.88
375.03
375.1
375.03
374.9
375.01
375.12
375.02
375.11
375.03
375.1
375.23
375.12
375.21
375.34
375.03
375.1
375.23
375.32
375.04
375.28
375.27
375.48
375.5
375.28
375.47
375.5
375.48
375.3
375.45
375.52
375.66
375.54
375.44
375.53
375.45
375.52
375.65
375.74
375.86
375.76
375.64
375.95
375.68
375.91
375.91
376.1
376.14
375.91
376.12
376.33
376.35
376.13
376.32
376.35
376.52
376.37
376.7
376.62
376.68
376.63
376.67
376.85
376.68
376.63
376.87
377.07
377.09
377.08
376.88
377.26
376.93
377.01
376.94
377.2
377.18
376.99
376.96
377.18
377
376.95
377
377.15
377.03
376.92
377.23
376.95
377
376.95
377
376.95
377
376.95
377.2
376.98
376.97
376.97
376.98
377.17
377.2
377.17
377.4
377.4
377.6
377.23
377.35
377.45
377.36
377.44
377.36
377.43
377.37
377.43
377.58
377.45
377.35
377.44
377.36
377.44
377.57
377.46
377.55
377.68
377.56
377.86
377.8
377.86
377.6
377.82
377.84
377.82
378.04
377.85
377.81
378.04
378.05
378.04
378.05
378.04
378.05
377.84
377.82
377.64
377.6
377.43
377.37
377.23
377.15
377.02
376.93
377.02
376.94
377.01
376.94
376.8
376.92
376.82
376.9
377.04
376.92
377.03
376.93
377.02
376.94
377.01
376.95
377.2
377.18
376.99
376.96
376.99
376.96
376.98
376.97
377.18
377.2
376.98
377.17
377.2
377.18
377.19
377.18
377.39
377.41
377.39
377.61
377.41
377.39
377.61
377.62
377.81
377.85
377.61
377.82
377.83
378.02
377.86
378
378.08
378.21
378.3
378.22
378.29
378.03
378.26
378.26
378.46
378.49
378.26
378.46
378.48
378.46
378.28
378.24
378.27
378.44
378.3
378.22
378.29
378.23
378.29
378.23
378.28
378.24
378.07
378.01
378.07
378.02
378.06
377.83
377.83
378.03
377.66
377.58
377.25
376.54
375.18
373.59
372.43
371.3
370.93
370.86
370.73
370.46
370.12
370.03
369.72
369.41
369.3
369.39
369.51
369.4
369.69
369.63
369.87
369.86
369.86
369.86
370.05
370.09
370.05
370.28
370.27
370.28
370.26
370.28
370.45
370.7
370.48
370.48
370.48
370.48
370.67
370.51
370.83
370.76
370.62
370.94
370.85
371.13
370.88
370.9
371.08
371.12
371.08
370.93
371.05
371.33
371.28
371.13
371.45
371.57
371.65
371.78
371.47
371.74
371.7
371.93
371.73
371.7
371.74
371.9
371.76
371.87
371.79
371.66
371.78
371.66
371.77
371.86
371.99
371.68
371.76
371.68
371.76
371.88
371.97
371.69
371.94
372.11
372.16
371.92
372.13
372.14
372.32
372.36
372.32
372.56
372.55
372.36
372.52
372.39
372.49
372.6
372.5
372.59
372.51
372.59
372.71
372.8
372.72
372.6
372.5
372.59
372.9
372.64
372.66
372.66
372.65
372.86
372.67
373.04
372.9
372.83
372.89
373.04
372.91
372.83
372.89
373.23
372.94
372.99
372.95
372.98
373.15
373.2
373.16
373.19
373.56
373.82
373.79
374.01
374.22
374.23
374.42
374.25
374.6
374.69
374.8
374.7
374.98
375.14
375.4
375.77
375.64
375.75
375.85
376.16
376.09
376.15
376.1
376.34
376.54
376.16
376.49
376.6
376.5
376.59
376.52
376.77
376.75
376.57
376.73
376.79
376.74
376.78
376.95
376.99
376.96
376.99
376.97
377.18
377.4
377.2
377.38
377.42
377.58
377.44
377.36
377.43
377.57
377.45
377.55
377.87
377.6
377.63
377.6
377.82
378.04
377.85
378.01
378.07
378.02
378.06
378.23
378.49
378.46
378.28
378.44
378.3
378.62
378.55
378.6
378.97
378.85
378.95
378.86
378.94
379.07
378.96
379.05
379.18
379.06
379.17
379.27
379.39
379.49
379.4
379.47
379.82
379.72
379.81
379.73
379.8
379.74
379.79
379.75
379.98
379.99
379.97
379.99
380.17
380.23
379.97
380
379.97
380.4
380.02
379.95
380.22
380.18
380.21
380.19
380.21
380.4
380.23
380.17
380.43
380.41
380.22
380.38
380.45
380.39
380.24
380.37
380.46
380.38
380.45
380.39
380.44
380.39
380.23
380.37
380.26
380.55
380.5
380.54
380.72
380.55
380.5
380.54
380.52
380.53
380.53
380.52
380.74
380.54
380.51
380.53
380.72
380.75
380.53
380.72
380.77
380.71
380.77
380.51
380.74
380.74
380.75
380.74
380.95
380.76
380.93
380.79
380.9
381.01
380.71
380.77
380.92
380.99
380.73
380.76
381.14
380.81
380.88
380.83
380.87
381.05
380.88
381.03
381.1
381.05
380.88
381.03
381.1
381.05
380.88
380.83
381.07
380.87
380.83
381.08
381.05
381.09
380.84
381.06
381.07
381.07
381.06
381.08
381.26
381.11
381.03
381.11
381.03
381.31
381.06
381.28
381.49
381.32
381.26
381.52
381.29
381.69
381.55
381.67
381.77
381.68
381.56
381.45
381.76
381.69
381.75
381.7
381.95
381.93
381.75
381.7
381.95
381.94
381.74
382.11
382
382.09
381.82
381.84
382.04
381.85
381.82
381.84
382.04
381.85
381.82
381.84
382.24
382.29
382.26
382.07
382.44
382.32
382.43
382.34
382.21
382.52
382.46
382.51
382.68
382.73
382.9
382.95
383.12
382.77
382.86
382.99
383.29
383.23
383.07
383.01
383.27
383.26
383.05
383.03
383.25
383.07
383.21
383.3
383.21
383.51
383.24
383.28
383.45
383.31
383.21
383.31
383.42
383.54
383.22
383.5
383.46
383.5
383.25
383.47
383.49
383.48
383.28
383.45
383.51
383.45
383.3
383.43
383.53
383.44
383.31
383.42
383.54
383.43
383.32
383.41
383.55
383.42
383.53
383.43
383.52
383.65
383.54
383.63
383.76
383.64
383.75
384.07
384.21
384.08
384.2
384.3
384.42
384.52
384.44
384.3
384.42
384.31
384.41
384.32
384.4
384.54
384.42
384.52
384.64
384.54
384.63
384.34
384.59
384.59
384.37
384.36
384.37
384.57
384.39
384.34
384.59
384.59
384.38
384.56
384.4
384.54
384.42
384.52
384.64
384.74
384.66
384.93
385.12
385.16
385.13
385.15
385.14
385.14
385.36
385.16
385.33
385.18
385.32
385.2
385.3
385.42
385.52
385.64
385.74
385.66
385.52
385.64
385.75
385.66
385.52
385.64
385.75
385.66
385.52
385.64
385.54
385.63
385.76
385.44
385.51
385.66
385.52
385.44
385.51
385.45
385.29
385.43
385.51
385.24
385.26
385.25
385.25
385.25
385.04
385.23
385.27
385.24
384.85
384.98
385.28
385.02
384.83
385
385.06
385.01
384.63
384.75
384.65
384.53
384.23
383.86
383.36
382.97
382.9
382.95
382.91
382.74
382.69
382.52
382.67
382.54
382.45
382.32
382.43
382.33
382.22
382.11
382.2
382.13
381.99
382.11
382
381.89
381.99
381.9
381.77
381.89
381.79
381.67
381.77
381.48
381.53
381.49
381.31
381.47
381.33
381.25
381.12
381.23
381.13
381.21
381.15
381
381.13
381.01
381.12
381.03
380.9
380.81
380.68
380.79
380.7
380.57
380.48
380.36
380.47
380.37
380.25
380.15
380.04
379.94
380.02
379.95
379.81
379.73
379.59
379.31
378.95
378.86
378.94
378.67
378.7
378.68
378.49
378.66
378.51
378.64
378.73
378.45
378.49
378.46
378.48
378.47
378.47
378.47
378.27
378.45
378.49
378.46
378.48
378.46
378.48
378.47
378.47
378.47
378.27
378.45
378.49
378.45
378.29
378.43
378.51
378.24
378.27
378.44
378.3
378.22
378.29
378.23
378.28
378.24
378.28
378.44
378.3
378.22
378.49
378.46
378.49
378.46
378.28
378.44
378.31
378.41
378.73
378.45
378.69
378.89
378.71
378.86
378.94
378.67
378.9
378.91
378.9
378.91
378.9
378.91
378.9
378.91
378.69
378.68
378.89
378.71
378.66
378.71
378.66
378.91
378.7
378.88
378.72
378.86
378.75
378.63
378.74
378.84
378.76
378.62
378.75
378.63
378.74
378.64
378.73
378.65
378.72
378.66
378.51
378.64
378.73
378.65
378.72
378.66
378.71
378.66
378.71
379.07
378.76
378.62
378.75
378.44
378.7
378.67
378.7
378.68
378.49
378.66
378.51
378.64
378.53
378.42
378.52
378.43
378.31
378.21
378.3
378.22
378.29
378.23
378.28
378.04
378.24
378.28
378.04
378.25
377.86
378
378.08
378.01
377.87
377.59
377.83
377.83
377.63
377.6
377.62
377.61
377.62
377.42
377.39
377.42
377.38
377.42
377.18
376.99
377.15
377.02
377.13
376.85
376.88
377.07
376.89
376.86
376.67
376.84
376.69
376.83
376.7
376.62
376.48
376.41
376.47
376.43
376.25
376.41
376.27
376.2
376.06
375.98
376.04
376
376.03
376.2
375.86
375.76
375.84
375.77
375.83
375.78
375.63
375.76
375.45
375.52
375.46
375.51
375.48
375.3
375.46
375.51
375.28
375.27
375.09
375.24
375.12
374.81
374.9
374.81
374.9
374.61
374.68
374.61
374.68
374.61
374.68
374.41
374.65
374.44
374.43
374.43
374.24
374.01
374.21
374.04
374.19
374.06
373.97
374.05
373.98
373.85
373.77
373.84
373.97
373.66
373.73
373.68
373.71
373.69
373.7
373.7
373.69
373.71
373.68
373.91
373.7
373.7
373.5
373.68
373.52
373.47
373.51
373.48
373.5
373.29
373.27
373.49
373.29
373.28
373.09
373.45
373.33
373.04
373.1
373.05
373.09
373.06
372.89
373.23
373.13
372.83
372.89
373.03
372.91
372.82
372.71
372.8
372.92
372.81
372.91
372.83
372.9
372.84
372.69
372.82
372.71
372.6
372.7
372.62
372.69
372.63
372.49
372.8
372.53
372.56
372.54
372.75
372.78
372.54
372.56
372.54
372.57
372.53
372.57
372.53
372.58
372.33
372.55
372.55
372.55
372.35
372.34
372.54
372.56
372.34
372.34
372.34
372.35
372.34
372.35
372.33
372.35
372.14
372.13
372.33
372.35
371.94
372.11
372.16
372.11
372.16
372.11
372.15
372.12
371.96
372.09
371.98
372.07
372
371.86
371.99
372.06
372.01
372.05
372.02
371.84
371.81
371.63
371.99
371.87
371.59
371.44
371.58
371.26
370.96
370.83
370.56
370.6
370.58
370.39
370.56
370.41
370.16
369.99
370.14
369.81
369.53
369.39
369.13
368.78
368.14
367.36
366.34
364.78
363.52
361.66
360.52
359.51
358.57
358.13
357.43
356.96
356.3
355.99
355.55
355.04
354.42
353.9
353.65
353.35
353.26
352.99
352.7
352.6
352.51
352.25
352.3
352.43
352.31
352.59
352.69
352.61
352.85
352.82
352.84
352.83
352.66
352.81
352.85
353
352.86
352.81
353.03
352.85
352.82
353.02
352.67
352.81
352.33
352.05
351.95
351.86
351.76
351.67
351.93
351.71
351.55
351.17
351.14
351.01
350.77
350.81
350.94
351.01
350.6
350.61
350.6
350.79
350.62
350.59
350.62
350.6
350.61
350.6
350.61
350.77
350.46
350.38
350.46
350.39
350.28
350.2
350.1
350.52
350.34
350.14
349.98
349.94
350.16
349.96
350.14
349.97
350.13
350.16
350.48
350.54
350.49
350.36
350.82
350.76
350.64
350.75
351
350.95
350.82
350.94
351.01
351.12
351.2
351.13
351.19
351.31
351.2
351.3
351.56
351.5
351.38
351.32
351.37
351.32
351.36
351.33
351.53
351.36
351.33
351.37
351.15
351.34
351.17
351.32
351.54
351.7
351.56
351.51
351.55
351.34
351.17
351.15
351
350.96
350.99
351.14
351.18
350.97
351.15
351.35
351.34
351.35
351.17
351.33
351.36
351.33
351.36
351.34
351.35
351.34
351.18
351.32
351.2
351.3
351.22
350.94
351.01
350.95
350.66
350.56
350.48
350.54
350.49
350.53
350.68
350.72
350.69
350.53
350.84
350.74
350.66
350.73
350.85
350.74
350.83
350.75
351
350.79
350.62
350.94
350.83
350.93
350.85
350.91
350.86
350.73
350.85
350.91
351.03
350.93
350.85
350.74
351
350.78
350.8
350.96
350.82
350.94
350.83
350.76
350.99
350.79
350.79
350.97
350.98
350.98
350.8
350.96
351.16
351.5
351.55
351.51
351.72
351.72
351.54
351.7
351.56
351.68
351.75
351.86
351.94
351.87
351.76
351.68
351.92
351.89
351.91
352.07
352.11
352.07
352.1
352.08
352.27
352.28
352.09
352.09
352.09
352.26
352.11
352.24
352.13
352.22
352.15
352.21
352.33
352.05
352.12
352.23
352.31
352.41
352.16
352.2
352.34
352.21
352.16
352.2
352.51
352.41
352.33
352.22
352.32
352.41
352.33
352.22
352.49
352.26
352.29
352.27
352.28
352.44
352.3
352.25
352.29
352.43
352.31
352.07
352.45
352.3
352.25
352.3
352.25
352.3
352.25
352.3
352.25
352.3
352.08
352.27
352.1
352.25
352.12
352.23
352.31
352.24
352.31
352.25
352.3
352.6
352.69
352.78
352.88
352.96
353.07
352.98
353.06
352.98
353.05
352.99
353.04
353
353.04
353.18
353.06
353.34
353.1
353.12
353.11
353.11
353.29
353.13
353.28
353.14
353.26
352.98
353.23
353.02
353.19
353.22
353.19
353.23
353.19
353.4
353.39
353.4
353.21
353.38
353.4
353.39
353.4
353.39
353.4
353.39
353.39
353.4
353.39
353.57
353.59
353.58
353.76
353.78
353.93
354.33
354.33
354.51
354.53
354.69
354.73
354.69
354.73
354.7
354.72
354.88
354.74
355.03
354.96
354.84
354.95
355.03
355.15
355.04
355.14
355.22
355.33
355.23
355.14
355.04
355.13
355.23
355.15
355.03
355.14
355.4
355.35
355.21
355.34
355.4
355.35
355.21
355.34
355.4
355.35
355.39
355.36
355.38
355.54
355.4
355.53
355.59
355.54
355.4
355.52
355.6
355.53
355.41
355.69
355.63
355.5
355.61
355.69
355.8
355.71
355.62
355.69
355.81
355.88
355.82
355.87
355.83
355.86
355.84
356.03
355.87
356
356.08
356
356.26
356.02
356.05
356.2
356.08
355.99
356.08
356.17
356.1
355.97
356.27
356.36
356.29
356.34
356.49
356.53
356.5
356.33
356.67
356.55
356.84
356.59
356.45
356.57
356.82
356.78
356.64
356.76
356.66
356.57
356.82
356.6
356.61
356.78
356.81
356.79
356.8
356.8
356.8
356.8
356.79
356.81
356.97
356.84
356.76
356.84
356.76
356.84
356.76
357.01
356.79
356.99
356.81
356.97
357.01
356.97
357.18
357.01
356.97
357.19
357.18
357.19
357
357.16
357.37
357.2
357.17
357.2
357.17
357.37
357.19
357.35
357.21
357.33
357.41
357.34
357.4
357.52
357.42
357.51
357.62
357.52
357.61
357.52
357.78
357.74
357.77
357.74
357.95
357.95
357.77
357.75
357.94
357.78
357.74
357.78
357.92
357.98
357.74
357.95
357.77
357.92
357.97
357.93
357.96
358.11
357.99
358.09
358.19
358.1
358.18
358.1
358.17
358.29
358.01
358.25
358.41
358.26
358.22
358.07
358.39
358.28
358.38
358.29
358.37
358.48
358.21
358.44
358.6
358.45
358.59
358.47
358.58
358.66
358.59
358.65
358.78
358.66
358.77
358.67
358.76
358.69
358.57
358.49
358.38
358.48
358.39
358.46
358.76
358.68
358.39
358.28
358.55
358.5
358.36
358.31
358.35
358.32
358.16
358.12
357.8
357.9
357.63
357.68
357.82
357.7
357.81
357.53
357.59
357.72
357.78
357.74
357.77
357.74
357.76
357.75
357.93
357.96
357.75
357.94
357.95
357.95
357.77
357.75
357.94
357.96
357.94
357.96
357.75
358.12
357.98
357.92
358.15
358.13
358.15
358.14
358.14
358.32
358.17
358.3
358.36
358.31
358.36
358.31
358.53
358.34
358.32
358.52
358.53
358.53
358.52
358.53
358.7
358.73
358.52
358.71
358.91
358.92
358.73
358.71
358.91
358.92
358.91
358.91
358.91
359.09
358.94
359.07
359.14
359.07
359.13
359.08
359.31
359.29
359.31
359.29
359.31
359.65
359.54
359.45
359.71
359.66
359.53
359.64
359.73
359.83
359.75
359.63
359.92
359.85
359.73
359.83
359.93
360.02
359.95
360
360.14
360.01
360.13
360.03
360.12
360.22
360.13
360.2
360.33
360.22
360.32
360.23
360.49
360.45
360.3
360.25
360.29
360.44
360.49
360.44
360.3
360.43
360.5
360.62
360.69
360.63
360.5
360.61
360.7
360.44
360.66
360.66
360.84
360.87
360.65
360.85
360.86
360.67
360.82
361.07
361.03
361.25
361.06
361.23
361.44
361.44
361.26
361.42
361.64
361.63
361.64
361.64
361.63
361.83
361.66
361.8
361.68
361.97
362.09
362.16
362.29
362.36
362.49
362.37
362.66
362.41
362.62
362.62
362.8
363.02
362.83
363
363.03
363.18
363.06
362.98
363.23
363.2
363.04
363.18
363.06
363.16
363.26
363.35
363.65
363.39
363.43
363.4
363.24
363.56
363.47
363.54
363.49
363.53
363.5
363.52
363.69
363.53
363.49
363.71
363.9
363.73
363.7
363.53
363.86
363.76
363.67
363.75
363.68
363.73
363.87
363.75
363.86
363.76
363.66
363.75
363.86
363.95
363.87
363.75
364.04
363.98
364.03
363.99
364.02
364
363.82
363.98
364.03
363.99
364.02
364.19
364.22
364.2
364.03
364.18
364.23
364
364.01
364.01
364.19
364.04
364.16
364.44
364.19
364.41
364.03
364.18
364.23
364.18
364.04
363.98
364.03
363.99
363.84
363.96
363.86
363.95
363.88
363.75
363.86
363.76
363.67
363.74
363.68
363.36
363.46
363.37
363.45
363.38
363.25
363.36
363.27
363.35
363.1
362.94
363.09
362.95
362.7
362.55
362.87
362.77
362.49
362.36
362.48
362.38
362.28
362
362.24
362.22
361.87
361.99
361.88
361.79
361.69
361.77
361.7
361.58
361.32
361.36
361.33
360.8
360.9
360.63
360.68
360.64
360.49
360.45
360.48
360.27
360.08
360.07
360.08
359.72
359.66
359.72
359.48
359.33
358.91
359.1
358.93
358.72
358.54
358.34
358.33
358.16
357.76
357.75
357.58
357.55
357.22
357.15
357.03
356.77
356.64
356.58
356.28
356
355.72
355.43
355.33
354.71
354.71
354.71
354.36
354.31
353.83
353.72
353.64
353.35
353.08
352.79
352.7
352.43
352.14
351.86
351.76
351.5
351.38
350.8
350.79
350.63
350.24
350.06
349.7
349.5
349.33
348.97
348.77
348.44
348.04
347.88
347.34
347.13
346.81
346.58
346.27
345.87
345.72
345.51
345.19
344.8
344.64
344.45
343.95
343.72
343.42
343.18
343.06
342.67
342.35
342.14
342
341.63
341.29
341.09
340.78
340.4
340.08
339.87
339.57
339.35
339.22
338.85
338.68
338.34
338
337.82
337.49
337.14
336.65
336.44
336.15
335.76
335.47
335.25
335.12
334.76
334.45
334.25
333.95
333.74
333.46
333.08
332.79
332.73
332.32
332.2
331.85
331.69
331.37
331.02
331.03
330.4
330.34
329.93
329.67
329.59
329.21
328.93
328.72
328.3
328.06
327.81
327.43
327.01
326.48
326.04
325.97
325.59
325.33
324.96
324.54
324.32
323.92
323.67
323.3
323.04
322.83
322.43
322.19
321.96
321.72
321.49
321.26
321.17
320.81
320.69
320.37
320.07
319.76
319.45
319.15
318.84
318.54
318.23
318.08
317.64
317.32
317.03
316.72
316.43
316.12
315.82
315.52
315.09
314.77
314.35
314.3
314.07
313.71
313.34
313.24
313.05
312.8
312.62
312.36
312.18
311.92
311.74
311.62
311.59
311.2
311.14
310.79
310.55
310.35
309.99
309.76
309.55
309.2
308.97
308.63
308.13
308.03
307.59
307.43
307.05
306.58
306.46
306.17
305.91
305.47
305.2
305.04
304.79
304.35
304.22
303.94
303.8
303.41
303.23
303
302.81
302.46
302.12
301.91
301.45
301.34
301.18
300.93
300.64
300.39
300.36
300.26
300.22
300.13
299.83
299.71
299.43
299.42
299.06
298.87
298.54
298.44
298.28
297.92
297.74
297.52
297.35
296.99
297.06
296.75
296.65
296.37
296.12
295.73
295.2
294.93
294.56
294.27
293.91
293.74
293.53
293.23
292.89
292.7
292.5
292.2
291.98
291.81
291.48
291.29
291.1
291.03
290.74
290.63
290.49
290.25
290.23
290.01
289.84
289.52
289.21
289.13
288.85
288.74
288.49
288.24
288
287.74
287.85
287.52
287.45
287.28
287.31
287.29
287.08
287.03
286.95
286.79
286.7
286.67
286.69
286.56
286.32
286.42
286.33
286.3
286.21
286.06
285.96
285.93
285.84
285.69
285.7
285.58
285.34
285.33
285.33
285.22
285.09
285.09
284.97
285.08
284.87
284.82
284.86
284.6
284.6
284.49
284.24
284.35
284.14
284.09
284.02
283.97
283.79
283.72
283.79
283.72
283.56
283.58
283.56
283.46
283.33
283.22
283.32
283.11
283.07
283.1
283.08
282.99
282.96
282.87
282.95
282.88
282.72
282.63
282.71
282.53
282.46
282.29
282.1
282.16
282
281.8
281.75
281.68
281.52
281.55
281.42
281.19
281.17
280.97
281.03
280.76
280.55
280.4
280.31
280.17
279.96
279.71
279.37
279.01
278.67
278.53
278.21
278.16
277.88
277.8
277.66
277.56
277.33
277.1
277.19
276.89
276.61
276.32
276.15
275.98
275.8
275.53
275.34
275.29
275.02
274.94
274.8
274.71
274.47
274.25
274.34
274.05
273.77
273.7
273.66
273.48
273.22
273.03
273.09
272.83
272.63
272.5
272.5
272.29
272.06
271.96
271.73
271.72
271.41
271.27
271.19
271.16
270.87
270.81
270.76
270.5
270.32
270.17
269.99
269.84
269.56
269.49
269.45
269.29
269.13
268.96
269
268.76
268.67
268.55
268.35
268.32
268.04
267.88
267.72
267.56
267.4
267.24
267.08
266.81
266.64
266.49
266.23
265.96
265.6
265.42
265.38
265.21
264.96
264.79
264.55
264.55
264.36
264.23
264.25
264.03
263.93
263.63
263.7
263.63
263.3
263.2
263.1
262.99
262.89
262.68
262.77
262.5
262.35
262.19
262.13
261.99
261.82
261.78
261.82
261.69
261.61
261.59
261.41
261.28
261.2
261.08
260.99
260.79
260.48
260.46
260.1
260.03
259.9
259.73
259.79
259.55
259.47
259.45
