805.45
805.52
805.19
805.19
805.75
805.54
805.72
805.84
806.01
805.87
805.71
806.12
805.77
805.8
806.05
805.83
806.02
805.58
805.68
805.88
805.15
805.23
805.16
804.94
805.41
805.01
805.07
805.3
804.82
805.24
805.15
805.23
805.71
805.29
805.38
805.59
805.68
805.61
805.11
806.09
805.8
805.49
806.32
806.15
806.29
806.17
806.27
806.74
806.34
806.13
806.31
806.43
806.6
806.18
806.54
806.51
806.53
806.52
806.24
806.77
807.14
806.55
806.5
806.83
806.81
807.11
806.84
807.08
807.42
807.13
807.1
807.14
807.1
807.42
806.86
807.62
807.25
807.28
807.82
807.62
807.8
807.63
807.51
807.89
807.85
807.87
807.86
808.13
808.47
807.88
808.4
808.5
808.14
808.44
808.47
808.71
808.8
808.15
808.72
808.78
808.74
808.49
808.43
808.47
808.72
808.23
808.65
808.01
808.28
808.34
807.99
808.31
807.75
807.96
808.05
807.98
808.03
807.99
807.74
808.24
807.81
807.9
808.1
807.93
808.08
808.23
808.38
808.8
808.44
808.47
808.45
808.18
808.7
808.53
808.67
808.83
808.41
808.77
808.74
809.04
808.79
808.16
808.71
808.79
808.73
808.5
808.42
808.77
808.47
808.17
808.43
808.75
808.76
808.47
808.72
809.06
808.77
808.74
809.05
809.05
809.33
808.81
808.98
808.84
808.67
809.11
808.73
809.33
809.09
809.02
809.64
809.1
809.29
809.41
809.3
809.68
809.63
809.39
809.59
809.43
809.56
809.45
809.54
809.75
809
809.38
809.33
809.09
809.02
808.81
809.26
809.43
808.72
809.05
809.05
808.77
809.3
808.57
809.19
809.22
808.9
809.19
808.65
809.41
809.3
809.11
809.55
809.46
809.26
809.43
809
809.65
809.37
809.33
809.38
809.6
809.98
809.36
809.62
809.95
809.95
809.66
809.64
809.93
809.96
809.65
810.21
810.28
809.94
809.95
810.22
810.27
810.23
809.98
810.48
810.33
810.17
810.31
810.19
810.58
810.24
810.25
811.09
810.92
811.06
810.94
810.76
811.2
810.82
811.15
811.43
810.9
811.36
810.97
811.01
811.27
811.04
810.96
810.74
811.22
811.08
810.92
811.06
810.95
810.76
810.92
810.78
811.18
810.56
810.81
811.44
810.89
811.09
811.19
811.11
811.18
811.4
811.21
811.65
811.55
811.63
811.57
811.61
812.15
811.4
812.04
812.06
812.04
812.06
811.75
812.03
812.34
812.08
812.01
812.36
812.05
812.61
812.13
812.82
812.79
812.8
812.8
812.51
813.34
813.18
813.04
813.43
813.66
813.46
813.64
813.48
814.18
814.14
813.6
814.07
814.23
814.09
813.93
814.07
814.51
814.13
814.18
814.42
814.49
814.44
814.19
814.41
815.06
814.78
814.74
814.79
814.73
814.79
814.17
814.43
814.2
814.12
814.19
813.85
814.14
814.18
813.86
814.14
813.89
814.1
814.2
813.83
814.15
813.88
814.11
814.2
813.83
814.44
814.19
814.41
814.22
814.09
814.49
814.43
814.21
814.68
814.28
814.61
814.9
814.35
814.84
814.41
814.78
814.74
814.49
814.99
814.85
814.69
814.83
814.7
815.1
814.47
814.72
815.08
815.05
815.08
815.04
815.08
815.33
815.13
815.01
815.4
815.05
815.36
814.81
815
815.41
815.33
815.4
815.62
815.72
815.91
815.75
815.88
815.78
815.86
816.08
815.88
816.35
816.22
816.05
816.47
816.4
815.88
816.34
816.23
816.6
816.56
816.31
816.53
816.63
816.83
816.65
816.52
816.92
816.57
816.59
816.58
816.58
816.59
816.01
816.51
816.08
816.16
816.1
815.86
816.36
816.21
816.06
815.9
816.04
816.2
816.06
815.9
816.32
815.67
815.94
816.29
816.26
816.58
816.01
815.94
816.28
815.71
816.19
816.64
816.24
816.6
816.28
816.56
816.6
816.57
816.59
816.58
816.58
816.3
816.25
816.87
816.62
816.55
816.61
816.27
816.56
816.6
816.56
816.89
816.6
816.85
816.92
816.57
816.87
816.62
816.83
816.94
816.84
816.93
817.13
817.25
817.7
817.32
817.07
817.59
817.41
817.29
817.1
817.84
818.05
817.87
817.74
818.14
818.07
818.13
817.8
818.08
818.13
818.07
818.42
818.11
818.95
818.51
818.6
819.39
818.7
819.01
819.04
818.72
819
818.75
818.97
819.06
818.69
818.73
818.7
818.44
818.67
818.18
818.6
818.25
818.26
818.83
818.04
818.44
818.1
818.1
818.11
817.81
817.79
817.8
817.8
817.79
817.81
818.07
818.42
817.82
818.06
818.14
818.36
818.17
818.05
818.44
818.39
818.14
818.35
818.17
818.61
818.52
818.31
818.78
818.37
818.44
818.66
818.19
818.6
818.54
818.29
818.8
818.64
818.49
818.33
818.19
818.6
818.25
818.25
818.55
818.57
818.56
818.27
818.53
818.87
818.59
818.82
818.63
818.49
818.92
818.53
818.59
818.53
818.59
818.81
818.92
818.82
819.2
818.86
819.44
818.65
819.04
819.29
819.06
819.56
819.41
819.54
819.99
819.61
819.64
819.63
819.62
820.22
819.69
820.16
820.32
820.18
820.01
819.88
820.27
819.94
819.64
819.92
819.95
819.93
819.94
819.66
819.88
819.71
819.27
819.67
819.59
819.96
819.35
819.31
819.62
819.93
819.37
819.28
819.36
819.87
819.43
819.51
820.02
819.58
819.68
819.59
819.95
819.93
819.66
819.89
819.98
819.9
819.97
819.63
819.92
819.96
819.63
819.92
819.67
819.88
819.71
819.56
820.26
819.94
819.65
819.9
819.4
820.11
819.8
820.05
820.14
820.32
820.76
820.36
820.44
820.92
820.82
820.59
821.1
820.64
820.77
820.35
821.02
821
820.74
820.96
820.78
820.92
821.1
820.64
821.05
820.97
821.05
820.97
821.33
821.31
821.05
820.69
821.29
821.06
820.96
820.77
820.93
821.38
820.69
820.72
821.26
821.08
821.23
820.83
820.87
821.43
820.93
820.8
820.9
821.11
821.2
820.85
821.42
821.53
820.84
821.46
820.91
821.39
821.25
821.09
821.8
821.2
821.12
821.5
821.44
822.08
821.23
821.4
821.82
821.75
821.52
821.72
821.83
822.03
821.57
821.68
821.59
821.66
821.89
821.4
821.82
822.03
821.56
821.97
822.2
821.71
821.84
822.01
822.44
822.07
821.81
822.04
822.13
821.77
822.07
822.11
822.36
822.44
822.07
822.4
822.39
822.69
822.15
822.61
822.79
822.34
822.45
822.35
822.15
822.61
822.22
822.25
822.53
822.28
822.22
821.97
822.48
822.32
822.18
822.29
821.92
822.23
822.26
822.22
822.56
822.25
822.24
822.24
822.25
822.23
822.26
822.22
822.56
821.97
822.2
822
821.88
822.27
821.94
822.21
822.56
821.96
822.2
822
822.17
822.31
821.9
822.25
821.95
821.92
822.24
821.96
822.78
822.36
821.85
822.3
821.91
822.53
822.28
822.2
822.85
822.29
822.2
822.28
821.92
822.52
822.29
822.19
822.29
822.2
822.57
822.25
822.53
822.57
822.24
822.24
822.53
822.57
822.82
822.33
822.74
822.97
822.47
822.63
822.19
822.58
822.53
822
822.16
822.32
821.89
822.26
822.22
821.69
822.14
821.76
822.36
822.15
821.73
821.83
821.72
822.41
821.51
821.73
821.54
821.71
821.56
821.4
821.82
821.75
821.23
821.4
821.82
821.46
821.48
821.19
821.71
821.56
821.1
821.8
821.47
821.76
821.51
821.16
822.03
821.86
821.13
821.48
820.89
821.69
821.01
821.01
821.6
820.79
821.21
821.12
820.92
821.37
820.99
821.31
821.05
820.68
821.31
821.03
821.29
820.77
820.94
821.36
821.29
821.05
821.56
821.11
821.5
820.88
820.83
821.45
821.2
821.71
821.27
821.07
821.54
821.41
820.95
821.06
821.26
821.65
821.32
821.31
821.62
821.05
821.27
821.08
821.24
820.81
820.33
820.74
820.67
819.87
820.28
819.93
820.22
819.98
819.6
820.23
819.69
819.87
819.71
819.56
819.69
819.58
819.67
819.88
819.7
819.57
819.68
819.59
819.95
819.65
819.33
819.61
819.64
819.91
819.39
819.27
819.37
819.29
819.36
819.3
819.34
819.6
819.09
818.96
819.36
819.3
819.06
818.99
819.05
819.28
819.07
819.54
819.14
819.2
819.16
818.9
819.7
818.72
818.99
819.34
819.31
819.63
819.06
818.99
819.62
819.36
819.29
819.65
819.33
819.89
819.41
819.82
820.04
819.56
819.7
819.86
820.01
819.59
819.67
820.17
820.02
819.86
819.72
819.55
819.99
819.9
819.4
819.83
819.47
819.77
819.52
819.43
819.81
819.18
819.17
819.17
819.18
818.87
818.86
818.58
818.83
818.89
818.85
818.6
819.1
818.95
818.51
818.61
818.81
818.64
818.78
818.66
818.76
818.96
818.5
818.62
818.8
818.93
818.81
818.34
818.75
818.41
818.4
818.7
818.72
819.29
818.5
818.61
819.09
818.68
818.74
818.69
818.44
818.95
818.51
818.6
819.09
818.39
818.99
819.05
818.7
819.02
818.73
818.98
819.05
819
819.04
819.01
819.03
819.02
818.73
819.27
819.09
819.24
819.12
818.93
819.38
818.71
819.28
819.66
819.32
819.9
819.4
819.55
819.99
819.6
819.66
819.9
819.69
819.58
819.39
819.55
819.7
819.28
819.36
819.01
819.31
819.62
818.78
819.22
819.42
819.24
819.4
818.97
819.35
819.02
819.3
819.64
819.06
819.27
819.37
819.28
819.65
819.62
819.36
819.58
819.39
819.27
819.66
819.6
819.94
819.94
819.94
819.65
819.89
820.27
819.93
820.23
820.26
819.95
820.21
820.27
820.22
819.99
820.18
820.59
820.23
820.55
820.27
820.22
820.55
820.55
820.27
820.79
820.35
820.72
820.7
820.41
820.97
820.47
820.62
820.2
820.85
821.15
820.61
820.79
820.92
820.8
820.91
820.81
821.19
821.15
820.89
821.11
821.21
821.12
821.2
820.85
821.15
821.47
821.19
821.43
821.51
822.01
822.16
822.03
822.72
822.12
822.05
822.41
822.09
822.09
821.8
821.76
822.08
822.1
821.79
822.06
822.11
822.07
821.82
822.03
822.42
821.8
822.05
822.13
822.05
822.7
822.13
822.34
822.16
822.02
822.15
822.03
822.42
822.37
822.13
822.34
822.45
822.35
822.15
822.04
822.71
822.7
822.13
822.05
822.12
822.64
822.19
821.99
822.46
822.05
822.41
822.1
822.65
823.05
822.4
822.68
822.73
822.97
823.05
822.41
822.96
823.07
822.67
823.02
823
823.02
823
822.74
823.25
823.39
822.97
823.06
822.97
823.05
823.27
823.09
823.52
823.45
823.21
823.43
823.23
823.7
823.57
823.69
823.58
823.39
823.84
823.74
823.82
823.76
823.8
824.07
823.83
824.04
824.14
824.06
824.12
824.37
824.15
824.34
823.88
823.99
824.19
823.72
824.42
824.11
824.08
824.12
823.78
824.37
823.86
824.01
824.17
824.03
824.44
824.08
824.1
824.38
823.85
824.3
824.21
824.28
824.52
824.01
824.17
824.61
823.95
824.21
824
824.16
824.63
823.91
824.55
824.56
824.56
824.26
823.96
824.21
824.3
823.63
824.22
823.99
824.48
824.06
823.84
824.61
824.23
824.26
824.24
823.96
824.79
824.37
824.15
824.63
824.5
824.61
824.51
824.31
824.78
824.38
824.71
824.72
824.7
825.02
824.73
825.28
824.8
824.64
825.07
824.99
825.05
825.01
825.04
825.31
825.06
825.28
825.38
825.59
825.69
825.32
825.35
825.91
825.42
825.55
825.73
825.86
826.33
825.93
825.98
826.52
826.34
826.5
826.07
826.43
826.71
826.46
826.68
826.78
826.7
826.76
826.71
827.04
827.06
826.74
827.31
826.53
826.91
826.59
826.28
826.56
826.6
826.28
826.54
826.04
826.16
826.08
825.84
826.65
825.93
826.28
825.97
826.23
826.59
826.28
826.25
826.58
826.29
826.54
826.04
826.46
826.69
826.19
826.63
826.54
826.62
826.84
826.36
826.48
826.67
826.49
826.95
826.55
826.89
826.89
826.6
826.85
826.92
826.86
826.63
826.83
826.95
826.84
826.65
827.1
826.72
827.03
827.07
826.73
827.33
826.8
826.97
827.4
827.33
827.38
827.35
827.66
827.4
827.31
827.99
827.39
827.62
827.71
827.64
827.99
827.99
827.4
827.91
827.76
828.18
827.82
827.83
828.12
827.86
828.1
827.88
828.07
828.49
828.14
828.14
828.73
828.21
828.37
828.23
828.35
828.54
828.38
828.52
828.4
828.5
828.42
828.19
828.68
828.54
828.08
828.19
827.81
828.13
827.86
827.5
827.83
827.82
827.84
827.81
827.85
828.39
827.93
827.72
828.51
827.81
828.13
828.14
828.43
828.47
828.15
828.42
828.77
828.76
829.07
828.79
829.03
829.12
828.75
828.78
829.04
829.11
829.05
828.81
829.02
828.55
828.94
829.2
828.67
828.85
828.98
828.88
829.25
829.23
829.23
829.54
829.55
829.85
829.28
829.2
829.26
829.51
829.57
829.24
829.51
829.88
829.55
829.85
829.87
830.15
829.9
829.83
830.18
830.18
829.88
830.44
830.24
830.41
830.27
830.39
830.58
830.41
830.27
830.39
830.29
830.36
830.02
830.01
830.62
830.09
829.96
830.06
830.28
830.38
830
830.03
830.31
830.06
830.28
830.08
830.55
830.44
829.95
830.37
830.6
830.69
830.32
830.05
830.87
830.45
830.23
830.43
830.25
830.11
830.23
830.13
830.22
830.44
830.24
830.41
830.56
830.43
829.96
830.36
830.6
829.81
829.62
829.49
829.02
829.13
828.74
828.78
828.76
828.77
828.77
828.46
828.74
828.79
828.46
828.15
827.84
827.23
827.47
827.26
827.45
827.58
827.17
827.23
826.89
827.18
826.94
826.84
827.52
826.93
827.15
827.25
827.45
827.28
827.42
827.6
827.73
827.05
827.04
826.48
826.36
826.49
825.78
826.41
826.14
825.8
824.93
823.96
823.92
823.97
823.34
823.32
823.04
823.28
822.2
820.84
820.3
819.34
819.02
819.02
818.73
818.99
818.48
818.63
819.07
818.69
818.73
818.7
818.44
818.67
818.19
818.6
818.53
817.73
817.86
817.75
817.84
818.04
817.3
817.65
817.65
817.35
817.34
816.77
817.55
816.88
816.89
816.88
816.88
816.89
816.59
816.57
817.44
817.55
817.72
818.16
817.77
818.11
817.53
817.75
817.56
817.43
817.55
817.44
817.26
817.7
817.04
817.31
817.38
817.29
817.39
816.72
817.32
816.79
816.97
817.38
817.88
818.01
817.62
817.1
817.84
817.76
817.54
817.74
817.57
817.43
817.55
817.73
817.85
818.04
817.88
818.01
817.9
817.71
818.16
818.63
818.51
818.32
818.48
818.06
818.14
818.08
817.27
817.4
817.29
816.82
816.94
816.55
817.17
816.93
816.27
816.57
816.59
816.3
816.25
816.3
816.25
816.03
815.64
815.99
815.68
815.95
815.15
815.56
815.77
815.29
815.71
815.63
815.42
815.6
815.45
815.58
815.75
815.6
816.02
815.94
816
815.67
815.1
815.6
815.45
815.29
815.44
815.03
815.38
815.36
815.09
815.33
814.84
815.26
815.19
814.95
815.44
814.73
815.35
815.39
815.06
815.35
815.1
815.32
815.41
814.77
815.32
815.42
815.04
815.37
815.08
815.33
815.11
815.02
815.39
815.07
815.34
815.39
815.06
815.35
814.82
815.28
815.17
814.97
815.15
814.7
815.38
815.36
814.81
815.56
815.21
815.22
815.51
814.96
815.44
815.3
815.43
815.88
815.21
815.21
815.23
814.35
814.55
814.37
814.25
814.35
813.99
814.3
814.33
814.29
814.05
813.68
814.01
813.99
814.02
813.99
814.03
814.26
814.35
813.98
814.31
814.02
814.27
814.34
814
814.29
814.04
813.97
814.32
814.01
814.28
814.05
814.25
814.08
813.93
814.07
813.94
813.78
813.91
813.81
813.89
813.83
813.58
814.1
813.92
814.08
813.94
813.79
813.91
814.09
813.92
814.08
813.66
813.46
813.63
813.77
813.64
813.48
813.61
813.79
813.63
813.77
813.64
813.76
813.94
813.79
814.19
814.13
814.17
814.43
814.2
814.41
814.22
814.39
814.24
814.09
814.22
814.39
814.24
814.37
813.97
814.03
813.99
813.74
814.24
813.24
813.53
813.58
813.25
813.54
813.28
813.23
813.55
813.28
813.22
813.28
813.22
813.29
813.22
813.85
813.58
813.53
813.85
813.58
813.53
813.86
813.57
813.82
813.89
813.26
813.52
813.58
813.81
813.9
813.53
813.57
813.54
813.57
813.26
813.52
813.58
813.53
813.58
813.25
813.26
813.52
813.3
813.21
813.58
812.97
813.5
813.32
813.47
813.63
813.2
813.3
813.49
813.61
813.5
813.6
813.8
813.62
813.21
813.57
813.54
813.56
813.55
813.27
813.79
813.63
813.77
813.65
813.46
813.63
813.76
813.37
813.7
813.71
813.69
813.72
813.4
813.69
813.71
813.7
813.7
813.43
813.93
813.8
813.61
814.07
813.66
814.03
813.42
813.95
813.78
813.36
813.72
813.97
813.76
813.66
813.75
813.94
813.5
813.31
814.05
813.69
814
813.73
813.67
814.29
813.76
813.66
813.75
813.66
814.02
813.71
813.69
813.99
813.45
813.92
813.81
813.89
813.83
813.31
813.49
813.6
813.52
813.58
813.54
813.28
813.51
813.3
813.49
813.32
813.47
813.62
813.22
813.84
813.88
813.55
813.57
813.54
813.86
813.57
813.54
814.12
813.92
813.51
813.88
813.83
814.16
813.59
813.81
814.18
813.86
813.85
814.14
813.61
814.07
813.68
813.72
813.7
813.98
814.32
813.73
814.53
814.11
813.91
814.64
814.59
814.34
814.28
814.32
814.86
814.39
814.52
814.4
814.51
814.98
814.58
814.63
815.16
814.98
815.14
815.56
815.49
815.82
815.26
815.45
816.16
815.53
815.8
815.55
816.05
815.9
815.47
815.56
815.49
815.54
815.5
815.25
815.75
815.6
815.45
815.58
815.18
815.81
815.56
815.2
816.08
815.6
815.45
815.3
815.71
815.93
815.44
815.58
816.02
815.93
815.72
815.91
816.02
816.22
816.04
815.92
816.3
816.26
816.29
815.99
816.23
816.61
815.98
816.54
816.62
816.55
816.32
816.24
816.87
816.34
816.21
816.62
816.54
817.19
816.62
816.83
817.21
816.89
816.88
817.18
817.2
817.75
816.99
817.36
817.9
817.71
817.88
817.72
818.15
818.35
817.89
818.28
818.24
817.98
818.5
818.33
818.77
818.39
818.42
818.68
818.46
818.94
818.81
818.91
819.12
818.65
818.77
818.66
818.47
818.92
818.54
818.86
819.17
818.6
818.81
818.63
819.08
818.97
818.49
818.9
819.12
818.64
818.49
818.33
818.47
818.07
817.56
817.72
817.87
818.02
818.18
818.32
818.2
817.17
816.92
817.14
816.95
817.11
816.12
815.84
816.37
815.35
813.41
811.71
811.22
811.08
810.64
810.74
810.94
810.49
810.6
810.51
810.3
810.76
810.09
809.83
809.5
808.66
808.83
808.13
807.9
807
805.83
805.47
804.68
804.54
803.83
803.07
802.09
800.75
799.46
798.94
798.85
798.65
798.28
798.06
798.52
798.12
797.92
798.1
798.22
798.39
798.24
798.37
797.71
797.73
797.99
797.49
797.39
797.48
796.59
795.46
794.57
794.8
794.61
793.96
794.53
794.03
793.93
793.75
793.63
793.74
793.11
792.85
792.81
791.77
791.87
791.79
791.31
790.94
789.93
789.74
789.37
788.37
787.91
787.53
787.59
787.81
787.35
788.28
789.32
789.21
789.04
787.87
787.02
786.45
785.62
785.56
785.08
784.98
784.8
784.43
784.75
784.49
784.18
784.45
784.21
783.9
783.38
783.58
783.4
783.03
783.09
783.04
782.82
783.01
782.85
782.99
782.87
782.45
782.3
782.16
782.54
782.21
781.72
782.15
782.04
782.13
781.8
781.29
781.48
780.79
780.35
780.21
780.08
780.45
780.14
779.88
780.63
780.23
780.06
779.69
779.75
779.96
779.26
779.09
779.5
778.89
778.64
778.6
778.88
778.91
778.36
778.84
778.43
778.26
778.16
777.73
778.1
778.04
777.06
777.38
777.37
777.37
777.13
776.81
777.1
776.58
776.78
776.86
776.28
776.52
776.58
776
776.51
775.81
775.91
775.83
776.14
776.14
775.37
775.53
775.64
775.29
775.33
775.05
775.28
775.35
774.77
775.03
774.8
775
774.57
774.43
774.8
774.74
774.28
774.68
774.59
774.67
774.35
774.11
774.58
774.17
774.01
774.15
774.28
774.17
773.76
773.6
773.99
773.66
773.69
773.67
773.68
773.93
773.2
773.33
773.22
773.31
773.23
773.04
773.21
773.31
772.72
772.97
772.77
772.67
772.52
772.13
772.73
772.2
771.91
771.9
772.16
771.93
771.63
771.38
771.85
771.45
771.54
771.21
771.23
771.48
770.75
770.88
771.02
770.65
770.71
770.42
770.15
770.39
769.68
770.05
769.73
769.24
769.16
768.98
769.14
768.5
768.55
768.76
768.32
768.45
768.09
767.4
767.99
767.49
767.16
766.96
766.87
766.46
766.3
766.46
765.8
765.63
765.52
765.63
765.03
764.81
764.49
764.77
764.28
763.96
763.74
763.43
763.45
763.44
762.46
762.31
762.45
762.08
761.91
761.56
761.62
761.32
760.84
760.76
760.34
760.2
759.6
759.37
759.58
757.92
756.43
755.53
754.86
754.95
754.4
753.89
753.86
752.91
753.01
752.44
752.21
751.93
751.21
751.11
750.48
750.06
749.72
749.29
748.95
748.29
747.68
747.48
746.95
746.69
746.22
745.19
745.38
744.51
744.08
743.75
743.09
742.95
742.37
741.93
741.38
740.22
739.37
738.25
737.36
736.28
734.68
733.77
733.19
732.32
731.7
730.87
730.22
729.43
728.53
728.18
727.8
727.24
726.82
726.29
726.07
725.6
724.88
724.61
723.94
723.86
723.48
722.92
722.96
722.49
722
721.99
721.32
720.8
720.37
720.3
719.91
719.15
718.93
718.69
718.01
717.72
716.88
716.51
715.96
715.13
714.76
713.56
713.73
713.17
712.34
712.2
711.23
710.79
709.88
709.17
708.93
708.29
707.77
707.37
706.22
705.52
704.65
703.93
703.29
702.16
701.45
700.81
700.11
699.89
699.04
698.73
698.38
697.64
697.25
696.55
696.13
695.67
694.83
694.53
693.98
693.42
693.09
692.35
692.18
691.52
691.07
690.85
690.23
690.15
689.62
689.27
689.38
688.47
688.25
688.04
687.62
687.38
686.78
686.69
686.38
685.84
685.51
684.99
684.85
684.17
683.76
683.72
683.16
682.85
682.53
681.81
681.64
681.39
680.43
680.07
679.8
679.05
678.72
677.83
677.82
677.25
676.76
676.6
675.95
675.94
675.37
674.7
674.7
674.12
674.03
673.54
673.18
673.31
672.61
672.46
672.01
671.82
671.79
671.06
670.91
671.05
670.92
671.04
670.93
671.03
670.94
671.02
670.95
671.02
671.65
671.8
671.66
671.16
671.58
671.23
670.88
671.2
670.91
670.55
670.22
671.15
670.34
670.41
670.35
670.39
669.74
669.67
669.74
669.04
669.03
668.4
668.32
668.39
668.33
667.76
667.63
667.74
667.65
667.11
666.95
667.09
666.97
666.45
666.89
666.52
666.21
665.87
665.53
666.45
665.65
665.72
665.05
665
665.06
664.37
664.36
664.36
664.37
663.73
663.68
663.72
664.31
663.18
663.53
663.24
662.86
663.21
662.9
663.17
662.93
662.53
662.87
663.2
662.9
662.55
662.23
663.13
662.36
661.79
662.29
662.47
662.31
661.83
661.64
661.8
661.66
661.78
661.68
661.15
661.62
661.82
661.64
661.8
661.67
661.77
661.69
661.75
661.71
661.13
661.63
661.81
661.66
661.78
661.68
661.77
661.69
661.14
661.62
661.82
661.65
661.18
660.97
661.77
661.08
661.05
661.09
660.44
661.01
660.51
660.33
660.49
659.74
659.78
659.75
659.77
659.76
659.15
659.68
659.23
659
659.2
658.42
659.1
659.12
658.49
658.44
658.48
658.44
657.86
657.76
657.85
657.77
657.24
657.09
656.62
657.02
657.29
656.44
656.57
656.46
656.56
655.87
655.86
655.88
654.66
655.11
655.33
655.13
655.31
655.15
655.29
655.76
654.76
654.41
654.13
653.76
653.5
652.51
652.78
652.54
652.16
651.89
651.54
651.23
650.92
650
650.21
650.02
649.59
649.37
649.57
648.81
648.28
648.16
647.67
647.51
647.65
646.95
646.96
646.96
646.36
646.31
645.76
645.65
645.16
644.43
644.47
643.86
642.64
641.97
640.82
640.67
640.22
640.04
640.2
639.49
638.95
639.42
639.02
638.22
637.77
637.59
637.75
637.05
637.08
637.06
636.5
635.86
635.84
635.86
635.27
635.22
634.69
634.59
634.12
634.53
633.62
633.27
633.58
632.74
632.36
632.12
632.33
631.59
630.56
630.33
629.98
629.17
628.76
628.56
628.74
628.03
628.08
628.05
627.52
627.98
627.58
626.82
626.93
626.29
626.29
626.3
625.73
625.68
625.17
625.62
625.24
625.01
625.21
625.03
625.19
624.51
624
624.44
624.07
623.84
623.5
623.24
623.47
622.72
622.29
622.12
621.73
621.53
620.09
619.17
618.9
618.58
618.34
617.47
617.16
617.42
616.67
615.71
616.02
615.75
615.46
614.65
614.29
614.6
613.81
613.43
613.77
612.94
613.13
612.45
612.5
611.95
611.89
611.96
611.35
611.37
611.34
611.38
610.81
611.32
610.35
610.14
610.32
609.65
608.67
607.97
608.05
607.98
607.52
607.41
607.5
607.94
607.04
606.78
607.01
606.3
605.89
605.73
605.35
605.17
604.82
604.6
604.28
604.04
604.25
603.56
603.65
603.07
602.54
602.5
602.02
601.93
601
600.79
600.97
600.31
600.38
600.33
600.36
600.84
599.92
600.21
600.47
599.73
599.87
599.25
599.78
599.33
598.7
598.76
598.7
598.76
598.7
598.26
598.63
598.33
597.56
597.75
597.57
597.74
597.58
597.23
597.02
597.21
596.54
596.63
596.55
596.62
596.06
596.05
596.06
596.05
595.57
595.48
595.07
595.41
594.64
594.29
595.11
594.38
594.53
593.9
593.96
593.9
593.46
593.34
592.96
592.79
592.46
591.75
591.88
591.27
590.83
590.72
590.82
590.24
589.77
589.69
589.76
589.21
588.72
588.66
588.71
588.66
588.22
587.63
587.66
587.64
587.17
586.61
586.61
586.61
585.65
586
585.71
585.47
585.21
584.46
584.64
584.48
584.15
583.95
584.12
583.5
583.56
583.03
583.01
582.57
581.99
582.02
581.51
581.49
580.56
580.42
580.54
579.96
579.52
578.97
578.5
578.91
578.09
577.86
577.6
577.34
577.11
576.37
576.09
575.87
575.6
575.36
575.11
574.4
574.1
573.89
574.07
573
572.54
572.94
572.59
571.98
571.59
571.47
571.11
570.06
570.05
570.07
569.59
569.56
568.67
568.54
568.65
568.11
567.67
567.15
567.14
566.71
566.17
566.2
565.72
565.7
565.26
565.2
564.8
564.7
564.35
563.76
563.82
563.77
563.37
563.27
562.91
562.34
562.39
562.35
561.94
561.85
561.49
560.92
560.97
560.93
560.52
559.99
559.57
559.94
559.19
558.95
559.17
558.53
558.22
557.62
557.7
557.63
557.26
557.14
556.81
556.66
556.36
555.75
555.85
555.33
554.92
555.27
554.54
554.3
554.52
553.9
554.01
553.06
553.02
553.06
552.59
552.57
551.73
551.61
551.29
551.13
550.85
550.24
550.35
549.83
549.85
549.84
549
549.3
549.05
548.84
548.61
548.38
548.16
547.92
547.72
547.04
547.22
547.07
547.2
546.67
546.29
546.2
545.85
545.74
545.42
545.28
545.4
544.88
544.92
544.47
544.43
544.48
544.01
543.6
543.53
543.19
542.65
542.72
542.65
542.72
541.83
541.78
541.82
541.38
541.34
541.38
540.93
540.5
540.46
540.51
540.05
540.04
539.64
539.58
539.23
539.12
538.81
538.67
538.39
537.81
537.91
537.82
537.5
536.97
537.03
536.57
536.16
535.72
535.29
534.86
534.03
533.15
531.93
531.01
530.23
529.72
528.99
528.44
527.75
527.17
526.9
526.35
526.44
525.97
525.61
525.15
524.77
524.33
524.32
523.95
523.88
523.19
523.01
522.79
522.2
522.35
521.45
521.09
521.02
520.33
520.15
519.94
519.73
519.92
519.75
519.15
518.52
518.33
518.11
517.94
517.33
516.74
515.75
515.87
515.02
514.63
513.86
513.41
513.07
512.25
511.87
511.09
510.31
509.89
508.81
507.92
507.62
506.79
506.44
506.02
505.67
505.96
505.37
505.15
504.64
503.99
503.51
502.84
502.38
501.7
500.9
500.17
499.77
498.7
498.6
497.63
497.44
496.22
495.89
495.15
494.07
492.96
492.56
491.9
491.1
490.11
489.28
488.34
487.47
487.24
486.1
485.77
485.06
485.02
484.39
483.62
483.31
482.93
482.6
482.24
481.57
481.18
480.87
480.16
479.81
479.48
479.11
478.79
478.1
477.74
476.78
475.71
475.36
474.4
473.65
472.74
471.95
471.09
470.27
469.45
468.6
467.51
466.91
466.23
465.27
464.61
463.66
462.99
462.35
462.03
461.39
461.06
460.44
460.11
459.49
459.15
458.26
457.86
456.44
455.63
455.17
454.7
454.24
453.48
453.27
452.88
452.07
451.35
450.83
450.71
449.96
449.75
449.1
448.81
448.23
447.59
447.03
446.38
445.85
444.9
444.07
443.12
442.31
441.35
441.11
440.49
440.49
439.67
439.31
439.08
438.74
437.95
437.56
437.36
437
436.24
436.1
435.69
435.25
434.84
434.4
433.99
433.81
433.44
433.23
432.89
432.4
431.53
430.97
430.42
429.07
428.44
427.45
427.03
426.12
425.12
424.47
423.27
422.3
421.4
420.44
420.03
419.89
419.28
419.07
418.76
418.28
417.97
417.75
417.45
417.21
416.94
416.44
416.64
416.23
415.61
415.42
414.86
414.13
413.81
413.37
413.51
413.39
413.25
413.14
413.23
412.68
412.43
411.94
411.64
411.21
410.62
410.67
410.38
410.4
410.14
409.91
409.63
409.17
408.62
408.41
408.12
407.91
407.62
407.41
406.89
406.42
406.13
406.16
405.66
405.63
404.97
404.16
403.95
403.68
403.46
403.19
403.19
403.19
402.74
402.45
402.25
402.19
402.24
402.2
402.24
401.98
401.08
400.72
400.37
399.99
399.65
399.27
399.39
399.28
399.15
398.81
398.67
398.56
398.44
398.32
398.21
397.85
397.94
397.86
397.71
397.84
397.51
397.12
397.25
397.13
396.8
396.42
396.31
395.97
395.82
395.95
395.84
395.71
395.61
395.25
395.13
394.8
394.65
394.34
394.17
394.11
393.94
393.22
392.54
392.27
392.07
392.03
391.85
392.22
391.9
391.96
392.13
391.55
391.62
391.56
391.61
391.36
391.57
391.61
391.78
392.07
391.81
392.26
392.3
392.48
392.32
392.46
392.56
392.69
392.36
392.42
392.59
392.44
392.14
392.18
392.37
392.41
392.38
392.4
392.6
392.21
392.34
392.45
392.57
392.89
392.83
392.88
393.27
393.37
393.72
393.63
393.92
394.11
393.94
394.31
394.42
394.54
394.44
394.53
394.89
394.79
394.87
395.24
395.36
395.48
395.37
395.46
395.82
395.73
395.81
395.96
396.05
395.98
395.81
395.96
396.05
395.75
395.79
395.98
396.25
396.24
396.24
396.47
396.49
396.7
396.73
397.14
397.23
397.38
397.25
397.36
397.27
397.56
397.75
397.8
397.99
398.04
398
398.03
398.46
398.52
398.47
398.29
398.67
399.01
399.16
399.25
399.62
400.19
400.6
400.92
401.54
401.68
401.56
401.21
401.51
401.48
401.5
401.72
401.75
402.18
402.48
402.45
402.7
402.94
402.5
402.43
402.26
402.41
400.48
400.11
401.12
401.58
402.32
402.81
403.53
403.81
403.8
404.03
404.3
404.06
404.27
404.31
404.51
404.56
404.75
404.82
405.22
405.1
405.2
405.12
405.41
405.63
405.43
405.84
405.94
405.85
405.93
406.1
406.64
406.64
406.63
406.88
407.11
407.39
407.37
407.63
407.86
408.13
408.13
408.37
408.39
408.84
408.68
409.05
409.2
408.84
409.15
409.35
409.41
409.59
409.44
409.81
409.72
409.56
409.94
409.84
410.16
410.12
410.15
410.36
410.41
410.61
410.67
410.85
411.41
411.17
411.13
411.41
411.4
411.88
411.47
411.58
411.96
411.63
411.92
412.15
412.18
412.39
412.21
412.36
412.48
412.61
412.74
412.62
412.96
413.14
412.99
413.36
413.52
413.13
413.48
413.66
413.98
414.18
414.25
414.67
414.55
414.89
414.84
414.87
415.1
415.13
415.11
415.12
415.6
415.42
415.58
415.68
416.08
415.97
416.07
415.99
416.54
416.8
416.57
417.01
417.11
417.27
417.38
417.29
417.61
417.82
417.88
418.32
418.91
419.38
418.97
418.84
418.71
418.33
418.66
418.62
418.89
419.16
418.92
419.37
419.72
419.67
419.71
419.92
420.23
420.46
420.26
420.68
420.81
420.95
421.08
421.21
421.6
421.51
421.58
421.77
422.1
422.07
422.1
422.32
422.62
422.62
422.86
422.91
423.11
422.95
422.83
423.19
423.12
423.44
423.65
423.73
423.91
424.27
424.45
424.55
424.71
424.83
424.97
425.11
424.98
425.36
425.28
425.6
425.32
425.56
425.36
425.27
425.61
425.57
425.86
426.11
426.4
426.4
426.41
426.65
426.95
427.2
427.24
427.46
427.54
427.71
427.82
428.23
428.4
428.24
428.65
428.55
428.9
429.1
428.93
429.33
429.51
429.34
429.76
429.65
430.01
429.95
430
430.47
430.07
430.15
430.09
430.13
430.37
429.89
430.57
430.5
430.56
430.77
430.85
431.04
431.4
431.35
431.39
431.62
431.68
431.89
431.96
432.16
432.25
432.43
432.8
432.74
433.05
433.05
433.04
433.32
433.34
433.59
433.63
433.34
433.85
433.94
433.85
434.21
433.89
434.43
434.22
434.4
434.51
434.42
434.5
434.69
434.53
434.93
434.85
434.91
435.4
435.24
435.38
435.52
435.67
435.8
435.95
436.08
435.97
435.8
435.95
435.82
436.2
436.14
436.19
436.68
436.79
436.7
436.51
436.41
436.49
436.42
436.21
436.4
436.24
436.11
436.48
436.43
436.47
436.44
436.46
436.18
436.42
436.22
436.11
436.22
436.11
436.22
436.11
435.95
436.08
435.98
435.52
435.93
435.57
435.63
435.57
435.36
435.54
435.39
435.24
435.38
434.99
434.8
434.69
434.79
434.7
434.78
434.45
434.47
434.19
434.16
433.93
433.86
433.93
433.6
433.63
433.34
433.59
433.11
433
432.84
432.71
432.56
432.16
432.25
432.44
432.27
431.89
431.7
431.6
431.43
431.06
430.86
430.77
430.84
430.53
430.28
430.24
430.27
429.99
429.71
429.7
429.7
429.45
429.14
429.16
429.13
428.65
428.8
428.68
428.51
428.42
427.97
427.86
427.68
427.85
427.69
427.59
427.41
427.32
427.13
426.8
426.31
426.49
426.07
426.18
425.83
425.88
425.84
425.88
425.59
425.83
425.63
425.54
425.63
425.29
425.09
425
425.08
424.75
424.79
424.75
424.79
424.75
424.54
424.46
424.54
424.21
424.25
424.21
424
424.18
424.03
423.9
424.03
424.15
424.05
423.88
424.29
423.92
424
423.93
423.74
423.9
424.02
423.91
424.01
423.92
423.75
423.89
423.78
423.86
424.05
423.88
423.79
423.86
424.06
423.88
423.79
423.86
423.8
423.84
424.07
423.87
423.8
423.85
423.81
423.84
424.07
423.86
424.05
423.89
424.03
423.91
424.26
424.21
423.99
424.19
424.01
424.17
424.28
424.19
424.01
424.42
424.32
424.41
424.58
424.43
424.56
424.45
424.54
424.72
424.56
424.71
424.83
424.98
424.84
424.97
425.11
425.24
425.13
425.23
425.14
425.21
425.15
425.2
425.66
425.52
425.64
425.54
425.62
425.81
425.89
425.83
426.13
426.39
426.16
426.37
426.18
426.34
426.45
426.62
426.73
426.89
426.75
426.62
427.24
427.21
426.97
427.19
427.51
427.75
427.53
427.47
428.03
428.06
427.77
428.29
428.09
428.26
428.38
428.53
428.91
428.58
428.86
428.88
429.12
429.44
429.15
429.4
429.44
429.67
429.73
429.93
430.28
430.49
430.31
430.46
430.6
430.74
430.88
431.01
431.17
431.28
431.45
431.56
431.73
431.83
432.02
431.85
432.26
432.42
432.55
432.44
432.8
433.01
432.83
432.98
433.37
433.29
433.63
433.6
433.88
434.17
434.18
434.44
434.74
434.75
434.74
435.01
435.04
435.55
435.38
435.52
435.67
435.8
435.96
436.08
436.51
436.67
436.8
436.68
437.06
437.27
437.08
437.51
437.68
437.79
437.97
438.08
438.53
438.4
438.51
438.42
438.5
438.7
438.52
438.68
439.08
439.27
439.11
439.25
439.67
439.84
439.69
439.82
440.25
440.42
440.55
440.71
440.57
440.96
441.17
441.26
441.73
441.32
441.67
441.92
442.24
442.52
442.27
442.77
443.16
443.65
443.5
443.62
444.07
444.24
444.09
444.49
444.7
444.79
444.72
444.78
445.28
445.12
445.26
445.42
445.56
445.99
445.9
445.98
446.47
446.6
446.76
446.9
447.06
447.2
447.08
447.47
447.42
447.73
447.75
447.73
448.03
448.32
448.36
448.6
448.97
448.36
449.17
449.03
449.43
449.66
449.45
449.92
450.07
450.23
450.37
450.25
450.64
450.88
450.66
450.86
451.25
451.21
451.23
451.5
451.83
452.13
452.15
452.43
452.46
452.73
452.49
452.7
453.09
453.04
453.36
453.38
453.64
454.01
453.68
454.26
454.04
454.52
454.69
454.53
454.96
455.17
454.99
455.43
455.35
455.7
455.7
455.69
456
456.01
456.3
456.33
456.61
456.64
456.92
456.96
457.22
456.99
457.49
457.35
457.76
458
457.79
458.26
458.44
458.58
458.46
458.56
459.07
459.22
459.09
459.2
459.4
459.52
459.72
459.84
460.33
459.9
460.26
460.55
460.89
460.61
460.83
460.95
461.13
461.29
461.13
461.29
461.43
461.63
461.14
461.87
461.83
462.17
462.17
462.47
462.51
463.08
462.89
463.04
463.22
463.66
463.59
463.63
464.21
464
464.19
464.32
464.82
464.69
464.81
465
465.14
465.02
465.12
465.03
465.41
465.69
465.75
465.7
466.04
466.05
466.34
466.41
466.65
467.06
466.69
467.32
467.08
467.28
467.42
467.3
467.71
467.96
467.75
467.93
468.09
468.56
468.47
468.53
469.1
468.91
469.08
468.93
469.06
469.56
469.44
469.53
470.08
469.6
470.02
470.28
470.36
470.29
470.35
470.61
471
470.98
470.99
471.3
471.65
471.66
471.64
471.98
471.99
472.3
472.34
472.31
472.64
472.98
472.69
472.94
473.03
473.27
472.76
472.88
473.09
472.9
473.07
472.92
473.37
473.29
473.36
473.62
473.7
473.94
474.05
474.27
474.71
474.65
474.7
474.97
475.05
475.3
475.08
475.27
475.74
475.65
475.41
475.62
475.76
475.95
476.1
475.97
476.09
476.3
476.43
476.63
476.78
476.65
476.76
477.3
477.48
477.32
477.78
477.71
478.08
478.72
478.8
479.06
479.16
479.07
479.14
479.4
479.5
479.74
479.21
479.34
479.56
479.36
479.54
479.71
480.53
480.79
480.88
481.12
481.24
481.46
482.24
483.52
486.02
487.17
488.15
488.65
489.2
490.41
491.37
491.91
492.1
492.29
492.11
492.62
492.51
492.61
492.52
492.61
492.52
492.6
492.53
492.6
492.87
492.64
492.15
492.24
491.82
491.85
490.82
489.35
488.61
488.24
487.89
487.53
487.52
487.52
487.52
487.52
487.85
487.56
488.14
488.31
487.5
488.87
489.69
489.98
490.75
491.76
491.91
492.44
492.68
492.12
492.61
492.85
492.66
493.15
494.1
494.29
494.48
494.64
494.18
493.88
494.16
493.9
494.48
494.65
495.88
496.88
497.74
498.03
496.06
494.65
494.51
494.28
494.15
493.91
494.46
494.32
494.44
494.34
494.43
494.7
494.46
494.67
494.49
494.64
494.86
495.01
495.22
494.35
493.74
493.93
493.76
493.9
494.13
493.93
494.1
494.3
494.12
494.28
494.15
494.26
494.5
494.63
494.52
494.61
495.22
496.07
497.06
496.89
497.38
497.31
498.05
498.47
498.43
498.83
498.82
499.19
499.2
499.21
499.19
499.57
499.23
499.53
499.96
499.95
499.95
499.96
500.28
500.37
500.63
500.77
500.63
500.77
500.98
500.82
500.94
501.21
501.3
501.6
501.32
501.58
501.34
501.91
501.76
501.9
501.77
501.54
501.73
502.27
502.15
502.26
502.17
502.6
502.58
502.59
502.24
502.53
502.64
502.89
503.05
502.89
503.04
502.9
503.39
503.3
503.75
503.71
503.75
503.71
503.75
504.06
503.8
504.01
504.2
504.02
504.2
503.67
504.14
504.08
504.14
504.08
504.13
504.44
504.18
504.04
504.18
504.4
504.57
504.77
504.61
504.73
505
505.11
505.39
504.77
504.96
504.79
505.3
505.57
505.34
505.53
505.73
505.2
505.66
505.98
506.06
505.99
506.05
506.36
506.09
506.32
506.48
506.34
506.46
506.36
506.8
506.78
506.43
506.74
506.47
506.35
506.45
506.37
506.8
506.43
506.73
507.21
507.14
506.85
507.09
507.27
507.09
507.26
507.45
507.67
507.46
507.66
507.47
507.65
507.84
508.05
508.21
508.09
508.18
508.13
508.15
508.88
508.59
508.49
508.56
508.88
508.94
508.91
508.56
509.24
509.37
509.26
509.34
509.65
509.74
509.67
509.72
510.41
510.17
510.02
510.15
510.4
510.54
510.42
510.16
511.12
510.66
510.67
511.04
510.71
511.01
510.74
510.98
511.13
511.01
511.11
511.4
511.5
511.79
511.53
511.77
511.92
512.16
511.94
512.14
512.33
512.17
512.3
512.19
512.28
512.22
511.89
512.19
512.29
512.58
512.32
512.55
512.71
512.57
512.69
512.6
512.66
512.98
512.7
512.59
513.04
513.03
513.03
513.04
513.02
513.42
513.06
513.01
513.41
513.44
513.41
513.45
513.4
513.45
513.03
513.77
513.49
513.73
513.53
513.33
513.51
513.35
513.13
512.94
513.48
513.01
512.68
512.6
512.67
512.61
512.29
512.57
512.33
512.16
511.95
511.76
512.3
511.82
511.87
511.83
511.86
511.84
511.49
511.42
511.49
511.07
511.06
511.07
510.7
510.65
510.33
509.88
509.91
509.52
509.49
509.15
509.07
509.15
508.36
508.32
508.35
508.32
