338.89
338.8
338.72
338.79
338.9
338.8
338.89
338.97
339.06
338.82
338.87
338.98
338.89
338.97
339.06
338.82
339.03
339.17
339.05
339.15
339.06
339.14
339.23
339.31
339.41
339.32
339.4
339.33
339.55
339.36
339.52
339.55
339.68
339.58
339.49
339.58
339.66
339.76
339.66
339.92
339.85
339.91
339.69
339.89
339.71
339.87
339.89
340.03
340.08
340.04
340.07
340.04
340.23
340.23
340.23
340.23
340.23
340.39
340.25
340.37
340.43
340.38
340.42
340.54
340.44
340.37
340.44
340.37
340.59
340.56
340.59
340.57
340.58
340.57
340.58
340.57
340.58
340.74
340.6
340.72
340.78
340.72
340.61
340.7
340.79
340.87
340.81
340.86
340.82
340.85
340.99
340.86
340.82
340.85
340.99
341.03
341.17
341.04
341.15
341.05
341.3
341.25
341.13
341.23
341.31
341.24
341.3
341.25
341.45
341.28
341.26
341.45
341.28
341.43
341.3
341.41
341.64
341.61
341.47
341.59
341.49
341.58
341.5
341.56
341.84
341.76
341.67
341.59
341.82
341.95
341.83
341.77
341.99
341.96
341.98
341.97
341.97
341.98
341.97
341.98
342.13
342.17
341.96
341.98
341.96
341.99
342.12
342.01
342.1
342.19
342.11
342.19
342.11
342.19
342.28
342.21
342.26
342.22
342.25
342.4
342.26
342.39
342.27
342.38
342.44
342.55
342.29
342.36
342.46
342.7
342.66
342.53
342.48
342.69
342.67
342.52
342.65
342.7
342.66
342.69
342.83
342.87
342.84
342.7
342.66
342.86
342.85
342.69
342.83
342.7
342.98
342.91
342.97
343.08
342.82
343.05
343.18
343.06
343.17
343.07
342.99
343.23
343.35
343.08
343.15
343.09
343.31
343.12
343.11
343.29
343.3
343.3
343.29
343.46
343.31
343.45
343.33
343.59
343.53
343.42
343.52
343.59
343.53
343.42
343.36
343.57
343.56
343.39
343.38
343.39
343.55
343.4
343.37
343.39
343.54
343.41
343.53
343.59
343.7
343.6
343.52
343.59
343.7
343.61
343.68
343.78
343.7
343.77
343.71
343.76
343.88
343.78
343.87
343.96
343.88
343.94
344.05
343.96
344.04
344.14
344.05
344.13
344.23
344.14
344.21
344.32
344.23
344.31
344.24
344.3
344.24
344.29
344.25
344.28
344.42
344.47
344.43
344.46
344.44
344.46
344.61
344.64
344.61
344.47
344.59
344.65
344.6
344.65
344.61
344.81
344.8
344.64
344.78
344.66
344.76
344.67
344.75
344.69
344.73
344.7
344.72
344.88
344.9
344.72
344.54
344.7
344.72
344.71
344.55
344.7
344.73
344.7
344.55
344.69
344.74
344.7
344.73
344.71
344.72
344.88
344.74
344.86
345.09
344.89
344.72
344.87
344.91
344.88
344.9
344.89
344.9
345.06
344.92
344.87
344.91
344.88
344.91
345.05
345.09
345.05
345.09
345.22
345.11
345.2
345.29
345.38
345.31
345.36
345.32
345.35
345.5
345.36
345.49
345.38
345.64
345.58
345.64
345.75
345.65
345.57
345.64
345.74
345.83
345.58
345.63
345.59
345.46
345.41
345.28
345.39
345.47
345.4
345.46
345.57
345.47
345.56
345.49
345.54
345.67
345.56
345.49
345.54
345.67
345.56
345.49
345.71
345.69
345.54
345.67
345.55
345.66
345.73
345.67
345.89
345.87
345.71
345.85
345.73
345.84
345.75
345.82
345.76
345.98
345.96
345.97
345.97
345.96
346.14
345.98
346.13
346.16
346.14
346.15
346.31
346
346.1
346.18
346.45
346.39
346.27
346.37
346.62
346.41
346.59
346.78
346.61
346.76
346.62
346.74
346.98
346.94
346.63
346.56
346.46
346.72
346.49
346.51
346.67
346.7
346.68
346.69
346.86
346.54
346.65
346.72
346.99
346.93
346.82
346.74
346.97
346.78
346.77
346.78
346.77
347.12
346.81
346.91
346.99
346.92
346.99
346.93
347.15
347.13
346.97
347.11
347.16
347.12
346.98
347.1
347.34
347.31
347.16
347.29
347.35
347.3
347.17
347.11
347.16
347.29
347.18
347.27
347.36
347.45
347.38
347.27
347.53
347.47
347.36
347.29
347.51
347.49
347.34
347.47
347.53
347.48
347.52
347.49
347.51
347.49
347.51
347.66
347.69
347.67
347.69
347.51
347.66
347.7
347.66
347.7
347.83
347.89
347.66
347.7
347.66
347.87
347.69
347.84
347.71
347.82
347.9
347.83
347.89
348
347.91
347.99
348.1
347.83
347.9
348
348.08
348.01
348.08
348.02
348.07
348.19
348.26
348.2
348.25
348.2
348.24
348.21
348.24
348.38
348.26
348.36
348.28
348.18
348.27
348.36
348.45
348.37
348.44
348.55
348.63
348.39
348.43
348.56
348.61
348.74
348.46
348.53
348.65
348.71
348.66
348.53
348.81
348.74
348.63
348.55
348.79
348.76
348.62
348.74
348.63
348.55
348.62
348.73
348.81
348.74
348.8
348.92
348.81
348.91
348.66
348.87
348.86
348.69
348.84
348.88
348.85
348.87
348.86
348.87
349.03
348.89
349.02
348.9
349
348.92
348.99
349.1
349.17
349.11
348.99
348.93
349.14
349.13
348.97
349.12
349.15
349.13
349.14
349.31
349.16
349.29
349.18
349.28
349.19
349.26
349.2
349.25
349.38
349.44
349.22
349.23
349.4
349.42
349.41
349.25
349.56
349.29
349.35
349.3
349.51
349.33
349.31
349.34
349.3
349.51
349.32
349.49
349.34
349.47
349.36
349.46
349.37
349.44
349.39
349.26
349.37
349.45
349.38
349.26
349.37
349.45
349.38
349.44
349.56
349.28
349.36
349.46
349.54
349.47
349.36
349.46
349.54
349.3
349.51
349.5
349.33
349.48
349.52
349.49
349.51
349.67
349.7
349.5
349.5
349.51
349.5
349.68
349.69
349.68
349.69
349.69
349.69
349.69
349.68
349.69
349.85
349.89
349.68
349.86
349.88
349.87
349.87
349.87
349.87
350.04
350.07
350.21
350.09
350.19
350.11
350.01
350.1
350.01
350.09
350.19
350.11
350.17
350.12
349.99
350.11
350
350.1
350.01
350.09
350.02
349.91
350
349.93
349.99
350.11
350
350.1
350.18
350.12
350.17
350.13
350.16
350.14
349.98
350.29
350.19
350.28
350.2
350.27
350.21
350.26
350.22
350.25
350.23
350.24
350.24
350.24
350.41
350.26
350.4
350.44
350.23
350.41
350.44
350.41
350.44
350.4
350.61
350.6
350.62
350.6
350.62
350.59
350.62
350.42
350.6
350.61
350.6
350.61
350.61
350.61
350.78
350.63
350.76
350.65
350.4
350.62
350.6
350.78
350.8
350.61
350.78
350.63
350.75
350.65
350.74
350.84
350.75
350.83
350.58
350.8
350.96
350.82
350.76
350.82
350.77
350.81
350.95
351
350.95
350.82
350.93
351.01
350.94
351.01
351.12
351.2
351.13
351.19
351.14
351.01
351.12
351.2
351.3
351.39
351.31
351.21
351.29
351.4
351.3
351.39
351.31
351.38
351.49
351.39
351.3
351.56
351.51
351.38
351.49
351.57
351.67
351.58
351.49
351.74
351.69
351.56
351.68
351.58
351.49
351.57
351.5
351.73
351.71
351.55
351.51
351.72
351.89
351.74
351.53
351.7
351.9
351.73
351.71
351.89
351.91
351.72
351.89
351.91
351.89
352.08
351.92
351.88
351.92
352.05
352.29
351.91
352.24
352.13
352.05
352.12
352.23
352.14
352.04
352.3
352.25
352.3
352.25
352.46
352.28
352.26
352.28
352.26
352.46
352.46
352.46
352.46
352.29
352.61
352.51
352.58
352.53
352.57
352.55
352.38
352.53
352.74
352.75
352.73
352.93
352.75
352.91
352.94
353.1
352.95
353.08
353.14
353.27
352.98
353.05
352.99
353.04
353
353.03
353.01
353.03
353.02
353.02
353.03
353.01
353.2
352.86
352.99
353.05
353.17
353.06
352.98
353.22
353.19
353.04
353.18
353.23
353.19
353.05
353.17
353.06
353.33
353.28
353.15
353.43
353.36
353.25
353.35
353.26
353.33
353.45
353.35
353.43
353.54
353.45
353.35
353.43
353.54
353.45
353.52
353.46
353.51
353.64
353.53
353.63
353.72
353.64
353.53
353.62
353.89
353.84
353.71
354
353.92
353.81
354.09
354.02
353.9
354
354.09
354.02
354.08
354.03
353.9
353.84
354.24
354.07
354.03
354.25
354.23
354.25
354.23
354.43
354.25
354.23
354.24
354.41
354.09
354.19
354.11
354.35
354.32
353.99
354.11
354.18
354.29
354.02
354.08
354.38
354.3
354.19
354.29
354.37
354.3
354.36
354.31
354.17
354.3
354.36
354.31
354.35
354.49
354.37
354.3
354.53
354.52
354.52
354.52
354.52
354.7
354.54
354.69
354.73
354.52
354.52
354.52
354.69
354.9
354.54
354.68
354.74
354.69
354.73
354.69
354.9
354.9
354.72
354.88
354.92
354.88
354.91
354.89
354.91
355.07
354.93
355.05
354.95
355.03
354.97
355.01
355.16
354.85
355.12
355.24
355.14
355.22
355.15
355.03
355.32
355.24
355.13
355.05
354.95
355.03
354.96
355.02
355.15
354.86
354.94
354.87
355.1
355.08
354.92
355.06
354.94
355.04
354.96
354.85
354.94
355.04
354.96
355.02
355.15
355.21
354.98
355
355.17
355.19
355.18
355.01
354.98
355.18
355.19
355.17
355.2
355.17
355.2
355.17
355.38
355.19
355.18
355.19
355.36
355.21
355.16
355.2
355.34
355.22
355.32
355.24
355.31
355.26
355.29
355.45
355.13
355.41
355.34
355.4
355.52
355.42
355.33
355.41
355.51
355.6
355.7
355.62
355.51
355.61
355.52
355.42
355.5
355.44
355.31
355.43
355.32
355.42
355.33
355.41
355.52
355.25
355.3
355.43
355.67
355.47
355.46
355.48
355.45
355.48
355.27
355.46
355.64
355.67
355.46
355.65
355.66
355.65
355.48
355.63
355.68
355.64
355.49
355.62
355.69
355.63
355.68
355.64
355.85
355.84
355.67
355.64
355.67
355.82
355.69
355.8
355.88
355.81
355.7
355.79
355.9
355.98
355.91
355.79
355.9
355.97
355.92
355.96
355.93
355.95
356.12
356.14
356.31
356.15
356.29
356.17
356.46
356.38
356.27
356.19
356.44
356.4
356.25
356.2
356.25
356.39
356.09
356.17
356.28
356.18
356.09
356.17
356.28
356.18
356.27
356.19
356.44
356.4
356.25
356.21
356.42
356.42
356.24
356.4
356.43
356.23
356.22
356.41
356.42
356.41
356.24
356.39
356.44
356.4
356.43
356.41
356.43
356.41
356.42
356.59
356.62
356.42
356.41
356.6
356.61
356.61
356.43
356.41
356.6
356.79
356.63
356.59
356.62
356.6
356.62
356.78
356.82
356.78
356.63
356.76
356.83
356.95
356.85
356.93
357.04
356.94
357.03
356.95
357.2
357.34
357.04
357.12
357.24
357.31
357.07
357.09
357.44
357.31
357.25
357.12
357.23
357.31
357.07
356.92
357.05
357.11
357.07
357.1
357.07
357.09
357.08
357.08
357.27
356.93
357.22
357.15
357.21
357.34
357.05
357.12
357.41
357.34
357.04
357.12
357.41
357.34
357.22
357.15
357.21
357.34
357.22
357.32
357.41
357.34
357.22
357.32
357.41
357.52
357.43
357.33
357.59
357.37
357.38
357.55
357.57
357.56
357.39
357.36
357.56
357.57
357.37
357.55
357.57
357.56
357.57
357.57
357.56
357.57
357.56
357.57
357.55
357.75
357.58
357.55
357.75
357.76
357.57
357.56
357.75
357.77
357.74
357.77
357.74
357.95
357.77
357.74
357.95
357.95
357.94
358.13
357.97
358.11
357.99
357.91
357.81
357.89
358
357.9
357.82
357.88
357.83
357.86
358.03
357.88
358.01
357.89
358
358.08
357.84
357.86
358.03
357.87
358.02
357.89
358
358.08
357.84
357.68
357.64
357.49
357.45
357.3
357.43
357.5
357.45
357.49
357.63
357.5
357.62
357.52
357.6
357.35
357.57
357.57
357.38
357.73
357.6
357.71
357.62
357.7
357.63
357.69
357.64
357.68
357.65
357.67
357.83
357.69
357.64
357.68
357.82
357.7
357.8
357.72
357.97
357.93
357.78
357.92
357.97
357.93
357.96
357.94
357.95
358.13
357.97
358.11
358.16
357.95
357.95
357.95
358.12
358.16
357.94
358.14
357.96
358.12
357.98
358.1
358.17
358.11
357.98
358.1
358.18
358.11
358.17
358.12
358.16
358.12
358.15
358.13
358.15
358.31
358.17
358.11
358.34
357.97
358.11
358.17
358.29
358.38
358.11
358.35
358.32
358.35
358.14
358.32
358.34
358.5
358.19
358.27
358.39
358.28
358.38
358.11
358.35
358.14
358.32
358.35
358.32
358.35
358.32
358.52
358.53
358.34
358.5
358.55
358.51
358.54
358.51
358.54
358.51
358.54
358.51
358.54
358.52
358.71
358.55
358.69
358.57
358.66
358.77
358.67
358.76
358.5
358.55
358.68
358.76
358.68
358.57
358.48
358.74
358.7
358.56
358.67
358.76
358.86
358.6
358.46
358.77
358.67
358.76
358.86
358.78
358.85
358.79
358.65
358.96
358.69
358.92
358.72
358.71
358.91
358.91
358.91
358.91
358.74
358.88
358.76
358.86
358.97
358.86
358.96
358.86
359.14
359.07
358.96
359.05
359.16
358.88
359.13
359.09
359.3
359.11
359.1
359.29
359.13
359.27
359.15
359.06
359.14
359.25
359.16
359.05
359.33
359.27
359.15
359.25
359.35
359.07
359.13
359.26
359.33
359.27
359.14
359.25
359.34
359.44
359.18
359.04
359.34
359.26
359.15
359.24
359.17
359.23
359.18
359.22
359.37
359.23
359.17
359.22
359.36
359.24
359.35
359.26
359.52
359.48
359.32
359.28
359.31
359.47
359.33
359.27
359.5
359.49
359.31
359.47
359.51
359.48
359.32
359.46
359.7
359.68
359.51
359.48
359.68
359.7
359.49
359.67
359.51
359.66
359.53
359.46
359.7
359.68
359.51
359.48
359.69
359.69
359.5
359.67
359.7
359.67
359.51
359.47
359.51
359.66
359.53
359.46
359.52
359.47
359.33
359.27
359.32
359.46
359.34
359.26
359.33
359.45
359.35
359.25
359.16
359.23
359.18
359.22
359.37
359.23
359.18
359.22
359.01
359
359.2
359.02
359.18
359.04
358.99
358.85
358.97
359.04
358.98
358.85
358.79
358.84
358.8
358.65
358.78
358.84
358.79
358.65
358.77
358.67
358.58
358.48
358.57
358.49
358.37
358.3
358.36
358.49
358.2
358.27
358.21
358.26
358.22
358.07
358.2
358.09
358
357.9
357.99
357.91
357.8
357.72
357.96
357.94
357.77
357.74
357.76
357.57
357.55
357.58
357.55
357.58
357.37
357.38
357.36
357.39
357
356.98
357
356.99
356.99
356.99
356.99
356.82
356.78
356.64
356.58
356.64
356.4
356.61
356.43
356.41
356.25
356.21
356.24
356.21
356.06
356.01
356.06
356.2
355.9
355.8
355.89
355.8
355.71
355.79
355.73
355.77
355.74
355.58
355.73
355.42
355.51
355.6
355.71
355.61
355.34
355.57
355.56
355.21
355.34
355.4
355.53
355.23
355.14
355.22
355.15
355.21
355.17
355.02
355.15
355.21
355.16
355.02
355.15
354.86
354.93
355.05
355.12
354.88
354.91
354.89
354.73
354.87
354.74
354.86
354.93
354.87
354.75
354.68
354.74
354.86
354.58
354.65
354.59
354.64
354.6
354.63
354.96
354.5
354.54
354.68
354.56
354.67
354.75
354.68
354.91
354.89
354.55
354.67
354.57
354.66
354.58
354.65
354.76
354.66
354.58
354.65
354.59
354.82
354.8
354.63
354.6
354.63
354.79
354.64
354.77
354.66
354.75
354.85
354.94
354.87
354.75
354.68
354.91
354.71
354.88
354.92
354.7
355.08
354.75
354.86
354.94
354.87
354.75
354.85
354.76
354.84
354.77
354.65
354.94
355.04
354.95
354.85
354.76
354.84
354.95
354.85
354.76
355.02
354.98
354.83
354.96
355.02
354.97
354.84
354.96
355.03
354.97
355.02
355.33
355.23
355.14
355.22
355.15
355.21
355.16
355.2
355.35
355.39
355.18
355.18
355.36
355.38
355.37
355.2
355.35
355.22
355.51
355.43
355.49
355.45
355.3
355.43
355.67
355.65
355.49
355.45
355.48
355.64
355.49
355.62
355.68
355.81
355.7
355.8
355.71
355.61
355.7
355.8
355.71
355.78
355.72
355.6
355.89
355.64
355.67
355.65
355.66
355.83
355.68
355.64
355.85
355.85
355.84
356.03
356.04
355.86
355.83
356.04
356.03
356.22
356.06
356.2
356.25
356.03
356.22
356.23
356.22
356.24
356.22
356.41
356.42
356.42
356.24
356.57
356.64
356.58
356.46
356.56
356.65
356.57
356.65
356.57
356.64
356.76
356.66
356.74
356.85
356.93
356.87
356.74
356.86
356.92
356.87
356.91
357.24
356.95
357.02
356.96
357.19
356.99
356.98
357.17
357.19
357.18
357.18
357.36
357.38
357.37
357.2
357.17
357.19
357.35
357.21
357.15
357.21
357.34
357.23
357.32
357.42
357.33
357.23
357.31
357.43
357.32
357.42
357.33
357.58
357.55
357.4
357.53
357.59
357.54
357.59
357.55
357.76
357.58
357.37
357.56
357.57
357.56
357.57
357.56
357.56
357.57
357.56
357.75
357.76
357.75
357.58
357.73
357.78
357.92
357.62
357.69
357.81
357.71
357.62
357.69
357.82
357.88
357.83
357.69
358
357.91
357.81
357.71
357.97
357.93
357.97
357.94
357.96
357.94
357.95
357.95
358.13
358.16
357.94
358.13
358.15
358.14
358.14
358.14
358.14
358.14
358.14
358.15
358.31
358.17
358.11
358.17
358.11
358.35
358.14
358.32
358.34
358.33
358.16
358.3
358.36
358.31
358.36
358.49
358.56
358.5
358.37
358.48
358.57
358.31
358.54
358.52
358.53
358.52
358.53
358.52
358.53
358.7
358.37
358.65
358.6
358.64
358.79
358.65
358.78
358.66
358.77
358.67
358.76
358.68
358.75
358.87
358.95
358.52
358.71
358.91
358.91
358.91
358.91
358.92
358.91
358.92
358.73
358.71
358.9
358.92
358.9
358.92
358.9
359.1
358.93
358.9
358.92
359.08
358.94
359.06
358.96
358.86
358.95
358.87
358.95
358.88
358.76
358.86
358.78
358.67
358.59
358.47
358.57
358.48
358.38
358.47
358.4
358.27
358.21
358.08
358.19
357.92
357.8
357.72
357.61
357.53
357.42
357.15
357.2
356.99
356.81
356.61
356.6
356.26
356.02
355.88
355.64
355.5
355.26
355.12
354.88
354.57
354.3
354.01
353.9
353.66
353.16
352.9
352.77
352.55
352.03
351.97
351.5
351.39
350.79
350.62
350.42
349.91
349.67
349.37
348.94
348.46
348.19
347.92
347.47
347.18
346.76
346.62
346.24
345.73
345.33
345.18
344.82
344.46
343.94
343.56
343.24
342.85
342.53
341.98
341.64
341.11
340.6
340.23
339.75
339.19
339.03
338.52
338.16
337.83
337.48
337.14
336.65
336.12
335.79
335.44
335.12
334.46
334.24
333.8
333.4
333.13
332.59
332.28
331.93
331.46
331.1
330.65
330.43
330.01
329.6
329.2
328.79
328.54
328
327.57
327.04
326.75
326.11
325.47
324.69
324.03
323.43
322.63
322.16
321.69
321.23
320.48
319.98
319.41
319.05
318.51
318.12
317.47
316.9
316.28
315.55
315.21
314.52
313.87
313.33
312.98
312.46
312.09
311.45
311.19
310.61
310.16
309.74
309.57
309.06
308.42
308.18
307.72
307.33
306.61
306.18
305.76
305.34
304.79
304.35
303.83
303.51
303.01
302.41
301.53
300.38
299.48
298.88
298.41
297.69
296.82
296.21
295.64
295.03
294.47
293.98
293.44
292.82
292.16
291.65
291.38
290.9
290.49
290.01
289.61
289.25
288.86
288.38
288.1
287.64
287.23
286.78
286.37
286.03
285.64
285.18
284.89
284.35
283.8
283.37
282.96
282.53
282.01
281.57
281.17
280.75
280.34
279.92
279.41
278.98
278.26
277.8
277.45
276.99
276.53
276.18
275.95
275.51
275.15
274.72
274.46
274.16
273.78
273.48
273.11
272.91
272.57
272.24
272
271.69
271.44
271.14
270.89
270.6
270.13
269.82
269.58
269.18
268.92
268.64
268.47
268.32
267.94
267.67
267.6
267.46
267.08
266.81
266.74
266.41
266
265.76
265.47
265.24
264.94
264.61
264.31
264.28
264.01
263.66
263.57
263.26
262.94
262.64
262.32
262.03
261.7
261.6
261.39
261.1
260.78
260.59
260.37
260.18
259.87
259.67
259.46
259.26
259.15
258.97
258.84
258.67
258.44
258.37
258.15
257.96
257.66
257.55
257.37
257.25
256.98
256.93
256.71
256.62
256.52
256.23
256.21
255.86
255.52
255.17
255.11
254.98
254.82
254.68
254.45
254.28
254.07
253.98
253.79
253.41
252.58
251.68
250.78
250.14
249.83
249.57
249.37
249.18
249.01
248.8
248.9
248.46
248.42
248.1
248.03
247.83
247.75
247.56
247.55
247.39
247.19
247.11
247.01
246.84
246.64
246.56
246.46
246.38
246.28
246.11
246
245.84
245.64
245.4
245.35
245.06
244.8
244.61
244.35
244.33
244.01
243.87
243.57
243.42
243.13
242.89
242.69
242.37
242.07
241.76
241.61
241.17
240.98
240.75
240.45
240.23
239.69
239.44
239.01
238.59
238.31
238.08
237.72
237.4
236.88
236.55
236.13
235.72
235.22
234.95
234.41
233.96
233.51
233.06
232.61
232.01
231.33
230.8
230.14
229.67
229.12
228.71
228.34
227.92
227.63
227.23
226.93
226.39
226.07
225.78
225.46
225.09
224.71
224.33
224.1
223.74
223.42
223.06
222.89
222.48
222.07
221.81
221.55
221.09
220.67
220.35
220.35
220.35
220.35
220.35
220.35
220.35
220.35
220.36
220.35
220.36
204.4
202.12
204.03
201.83
203.44
201.53
203.06
201.25
202.06
200.7
201.31
200.14
200.56
199.57
200.24
199.46
199.53
198.88
199.03
198.52
198.34
197.93
197.66
197.33
196.99
196.74
196.53
196.36
196.08
196.17
195.85
195.79
195.41
195.4
194.98
194.82
194.14
194.2
193.73
193.62
192.72
192.79
192.13
192
191.15
191
190.36
190.4
189.79
189.8
189.22
189.02
188.45
188.43
187.89
187.84
187.34
187.25
186.96
186.87
186.59
186.49
186.22
186.11
185.85
185.73
185.66
185.38
185.27
185.37
184.94
184.96
184.6
184.56
184.44
184.19
184.07
183.99
183.91
183.62
183.54
183.43
183.38
183.06
182.85
182.85
182.87
182.66
182.69
182.47
182.69
182.31
182.32
182.13
182.31
181.97
181.95
181.95
182.13
181.96
181.96
181.77
182.12
181.81
181.92
181.81
181.91
181.65
181.72
181.65
181.55
181.3
180.7
180.39
180.34
180.21
180.17
180.03
179.99
179.37
179.1
179.17
179.28
179.02
178.92
178.68
178.73
178.69
178.56
178.35
178.37
178.2
178.02
177.86
177.83
177.71
177.49
177.53
177.33
177.19
176.98
177.01
176.98
176.86
176.64
176.06
175.46
175.21
174.79
174.86
174.33
174.18
174
174.16
174.02
174.14
174.19
174.3
174.36
174.46
174.68
174.96
175.02
174.66
174.66
175.28
175.82
175.98
176
175.83
175.66
175.34
174.84
174.66
174.5
174.19
173.84
173.54
173.04
172.87
172.56
172.23
172.07
171.91
171.45
171.11
170.81
170.63
170.35
170.15
170.47
170.49
170.47
170.49
170.32
170.18
169.86
169.56
169.24
169.08
168.93
168.92
168.79
168.47
168.03
167.84
167.58
167.38
167.14
166.92
166.55
165.75
165.48
165.16
164.88
164.57
164.43
164.15
163.99
163.85
163.83
163.72
163.55
163.43
163.39
163.15
162.96
162.73
162.39
162.42
162.26
162.13
161.85
161.83
161.72
161.41
161.29
161.26
161.29
161.13
161.14
161
160.86
160.85
160.73
160.57
160.32
160.27
160.32
160.28
160.19
159.87
159.63
159.2
159.07
158.92
158.79
158.78
158.66
158.51
158.39
158.24
158.25
157.86
157.81
157.74
157.67
157.61
157.29
157.32
157.16
157.05
156.78
156.76
156.65
156.5
156.51
156.38
156.37
156.25
156.1
156.11
156.11
155.99
155.84
155.85
155.84
155.85
155.72
155.71
155.6
155.57
155.48
155.43
155.35
155.3
155.23
155.16
155.22
155.05
155.08
155.17
155.21
155.05
155.07
155.18
155.33
155.2
154.94
155.16
155.58
155.71
155.72
155.83
155.98
155.85
155.59
154.97
154.66
154.45
154.26
154.19
154.01
153.93
153.76
153.55
153.25
153.05
152.75
152.54
152.25
152.27
152.13
152.13
152.02
152
151.55
151.24
150.83
150.15
149.72
149.3
149.32
149.19
149.08
149.06
148.86
148.59
148.6
148.59
148.6
148.48
148.47
148.48
148.36
148.35
148.36
148.13
148.22
148.14
148.09
148.03
148.08
148.04
147.96
148.04
147.96
148.03
148.08
148.15
148.09
148.04
148.08
148.15
147.97
148.13
148.22
148.36
148.24
148.23
148.24
148.12
148.11
148.12
148.12
147.9
147.98
147.91
147.86
147.9
147.75
147.66
147.52
147.42
147.4
147.42
147.4
147.3
147.39
147.43
147.4
147.31
147.39
147.43
147.28
147.3
147.29
147.3
147.29
147.19
147.17
147.07
147.05
146.96
146.93
147.06
147.16
147.19
147.17
147.18
147.39
147.54
147.63
147.88
148.21
148.14
148.2
148.38
148.45
148.61
148.58
148.6
148.58
148.6
148.59
148.6
148.59
148.48
148.58
148.72
148.71
148.71
148.82
148.84
149.05
149.09
149.05
149.09
149.06
148.97
148.93
149.19
149.3
149.32
149.42
149.44
149.42
149.22
149.17
148.99
148.92
148.76
148.67
148.75
148.68
148.63
148.56
148.74
148.58
148.6
148.58
148.71
148.6
148.47
148.48
148.36
148.35
148.36
148.47
148.59
148.6
148.59
148.6
148.7
148.72
148.7
148.72
148.7
148.84
148.83
148.84
148.94
148.96
148.94
149.07
149.07
149.07
149.07
149.07
149.07
149.18
149.09
149.17
149.32
149.3
149.32
149.3
149.43
149.54
149.56
149.55
149.56
149.77
149.93
150.13
150.18
150.25
150.31
150.37
150.44
150.26
150.07
150
150.07
150.12
150.08
150.11
150.2
150.23
150.21
150.23
150.22
150.22
150.34
150.34
150.46
150.47
150.58
150.48
150.68
150.62
150.67
150.74
150.8
150.86
150.8
150.86
151.04
151.11
151.05
151.1
151.17
151.34
151.31
151.22
151.41
151.48
151.54
151.49
151.64
151.74
151.77
151.87
152.01
152.01
152.01
152.13
152.14
152.25
152.26
152.37
152.39
152.49
152.52
152.62
152.77
152.76
152.88
153.01
153.13
153.39
153.51
153.65
153.89
154.28
154.41
154.66
154.57
154.77
154.84
154.9
154.97
155.15
155.24
155.28
155.49
155.54
155.62
155.67
155.75
155.8
155.88
156.06
156.15
156.19
156.29
156.32
156.54
156.47
156.65
156.62
156.65
156.75
156.78
156.88
156.92
157.01
157.06
157.14
157.32
157.41
157.45
157.55
157.72
157.69
157.84
157.97
158.1
158.24
158.24
158.37
158.51
158.64
158.65
158.77
158.92
159.05
159.07
159.31
159.35
159.44
159.5
159.57
159.89
159.87
160.02
160.15
160.29
160.3
160.42
160.58
160.7
160.73
160.83
161.01
161.11
161.29
161.13
161.27
161.41
161.55
161.56
161.68
161.71
161.95
162.01
162.08
162.16
162.22
162.3
162.36
162.45
162.63
162.48
162.47
162.62
162.62
162.76
162.76
162.9
162.91
163.04
163.06
163.32
163.22
163.3
163.1
163.14
162.97
162.72
162.67
162.71
162.68
162.57
162.53
162.69
162.69
162.69
162.69
162.69
162.83
162.84
162.97
162.85
163.09
163.02
163.08
163.29
163.24
163.42
163.53
163.7
163.83
163.72
163.82
164
164.11
164.02
163.96
164.14
164.13
164.14
164.27
164.29
164.41
164.57
164.57
164.57
164.71
164.86
165.01
165.01
165.15
165.17
165.15
165.16
165.29
165.32
165.43
165.47
165.44
165.6
165.74
165.76
165.88
166.05
166.04
166.05
166.18
166.21
166.19
166.34
166.49
166.36
166.47
166.52
166.75
166.69
166.74
166.84
166.89
167
167.46
168.62
169.76
170.37
170.72
171.6
172.02
172.11
172.03
172.25
172.65
172.9
173.44
174.19
174.61
175.02
175.59
176.03
176.27
177.63
178.68
178.41
177.52
175.61
173.09
170.45
168.47
167.88
167.4
167.25
167.1
166.81
166.65
166.5
166.21
166.04
165.92
165.6
165.6
165.32
165.15
164.89
164.57
164.43
164.28
164.41
164.58
164.84
165.3
165.86
166.07
166.16
166.37
166.6
166.69
166.61
166.68
166.75
166.84
166.76
166.97
167.06
167.55
167.97
168.75
169.22
169.53
169.7
169.84
170.01
169.86
169.7
169.55
169.25
169.07
168.8
168.46
168.18
167.57
166.97
164.44
161.6
160.22
159.46
159.35
159.07
158.8
158.52
158.38
158.25
157.98
157.72
157.57
157.33
157.03
156.79
156.62
156.53
156.36
156.14
155.83
155.61
155.56
155.37
155.28
155.12
155.01
154.87
154.74
154.74
154.37
154.46
154.38
154.21
153.99
153.95
153.74
153.8
153.63
153.54
153.5
153.42
153.25
153.16
153
152.9
152.76
152.65
152.63
152.52
152.38
152.38
152.38
152.27
152.25
152.14
152.12
152.14
152.13
152.02
151.88
152
151.9
151.86
151.9
151.75
151.77
151.52
151.51
151.4
151.38
151.28
151.25
151.27
151.14
151.14
151.26
151.15
151.13
151.15
151.13
151.15
151.02
151.01
151.02
151.01
151.14
151.03
151.01
151.02
151.01
150.91
150.88
150.9
151
151.03
151
151.03
151.01
151.02
151.12
151.27
151.26
151.27
151.26
151.26
151.38
151.28
151.36
151.41
151.48
151.54
151.49
151.53
151.72
151.79
151.85
151.92
151.85
152.03
151.99
152.14
152.13
152.14
152.25
152.38
152.38
152.38
152.5
152.63
152.75
152.77
152.87
152.9
152.99
153.03
153.12
153.28
153.25
153.28
153.38
153.53
153.51
153.64
153.77
153.78
154.01
154.05
154.13
154.18
154.38
154.33
154.49
154.72
154.63
154.83
154.9
154.96
155.03
155.1
155.15
155.47
155.44
155.59
155.58
155.83
155.87
155.95
156.13
156.34
156.41
156.46
156.67
156.73
156.93
157
157.07
157.25
157.35
157.38
157.61
157.66
158
157.95
158.12
158.22
158.39
158.5
158.65
158.77
158.8
159.03
159.21
159.31
159.48
159.59
159.75
159.74
159.88
160.02
160.15
160.3
160.43
160.57
160.7
160.86
160.98
161.27
161.41
161.55
161.69
161.83
161.97
162.12
162.12
162.25
162.41
162.54
162.56
162.81
162.99
163.1
163.27
163.26
163.41
163.55
163.56
163.69
163.84
163.98
164
164.12
164.28
164.41
164.44
164.69
164.74
164.69
165.01
165.01
165.15
165.31
165.3
165.58
165.62
165.73
165.91
166.03
166.2
166.19
166.48
166.51
166.62
166.81
166.78
167.09
167.24
167.25
167.38
167.55
167.55
167.84
167.87
167.98
168.03
168.13
168.33
168.44
168.49
168.58
168.79
168.9
168.95
169.04
169.25
169.36
169.56
169.53
169.84
169.86
169.99
170.03
170.28
170.36
170.43
170.67
170.61
170.81
170.78
170.96
171.09
171.27
171.27
171.42
171.58
171.59
171.73
171.9
172.05
172.22
172.22
172.37
172.4
172.67
172.74
172.98
173.23
173.31
173.55
173.49
173.69
173.66
173.84
173.99
174.17
174.17
174.32
174.5
174.65
174.82
174.83
174.98
175.15
175.31
175.33
175.78
176.02
176.27
176.37
176.44
176.54
176.6
176.71
176.61
176.55
176.6
176.56
176.59
176.73
176.91
177.07
177.09
177.56
177.62
177.88
178.13
178.4
178.49
178.57
178.66
178.91
178.86
179.06
179.21
179.24
179.38
179.41
179.55
179.59
179.72
179.77
179.73
179.92
180.08
180.1
180.25
180.28
180.26
180.28
180.43
180.62
180.63
180.62
180.79
180.8
180.96
180.99
181.13
181.17
181.31
181.35
181.15
181.16
181.48
181.36
181.47
181.71
181.83
181.73
181.82
181.91
181.83
181.9
182
182.08
181.84
181.72
181.83
181.9
181.84
181.89
181.84
181.88
182.02
181.9
181.83
181.89
182.17
182.1
182.16
182.11
182.32
182.31
182.31
182.49
182.33
182.3
182.15
182.45
182.36
182.27
182.18
182.43
183.05
183.36
183.43
183.54
182.94
182.95
182.77
182.41
182.23
181.71
181.5
181.19
180.96
180.66
180.59
180.65
180.76
180.67
180.75
181.17
181.47
181.54
181.81
182.25
182.54
183.12
183.63
184.04
184.2
184.06
184.18
184.24
184.36
184.26
184.35
184.45
184.19
184.24
184.37
184.43
184.38
184.42
184.56
184.61
184.56
184.6
184.74
184.79
184.75
184.78
184.93
184.97
185.11
184.99
185.09
185.35
185.3
185.34
185.48
185.71
185.68
185.53
185.84
185.92
185.85
186.08
186.4
186.65
186.79
186.85
186.97
187.04
187.15
187.23
187.34
187.43
187.53
187.62
187.54
187.79
187.75
187.96
187.96
188.13
188.16
188.13
188.34
188.51
188.55
188.51
188.55
188.51
188.73
188.72
188.73
188.89
188.93
188.9
188.93
189.08
189.14
189.08
189.31
189.11
189.29
189.31
189.29
189.31
189.47
189.52
189.47
189.51
189.66
189.72
189.66
189.71
189.85
189.92
190.03
190.12
190.04
190.11
190.23
190.5
190.44
190.49
190.45
190.31
190.24
190.12
190.04
190.11
190.05
189.74
189.64
189.55
189.26
188.98
189.04
188.81
188.82
188.82
188.45
188.6
188.65
188.79
188.48
188.57
188.49
188.56
188.68
188.76
188.69
188.75
188.88
188.94
188.71
188.55
188.52
188.54
188.7
188.56
188.51
188.55
188.69
188.57
188.68
188.76
188.69
188.75
188.7
188.92
188.91
188.91
188.92
188.91
189.1
188.93
189.08
189.13
189.09
189.12
189.1
189.11
189.28
189.32
189.29
189.31
189.3
189.3
189.48
189.33
189.28
189.32
189.29
189.31
189.11
189.28
189.32
189.28
189.32
189.1
189.11
189.1
189.12
188.92
188.91
188.92
189.09
188.94
188.89
188.94
188.9
188.93
188.9
188.75
188.88
188.77
188.86
188.79
188.84
188.8
188.65
188.79
188.66
188.6
188.47
188.59
188.48
188.4
188.46
188.41
188.45
188.6
188.46
188.59
188.3
188.37
188.31
188.19
188.11
188
187.74
187.78
187.75
187.6
187.38
187.39
187.21
187.01
187.01
186.83
186.64
186.45
186.44
186.44
186.27
185.89
185.87
185.89
185.88
185.36
185.29
185.18
185.1
184.83
184.54
184.62
184.38
184.25
184.02
183.87
183.83
183.53
183.45
183.35
183.1
182.98
182.74
182.61
182.56
182.27
182.02
182.07
181.86
181.54
181.48
181.53
181.32
181.17
181.14
180.83
180.77
180.66
180.59
180.49
180.25
180.13
180.07
179.8
179.7
179.62
179.36
179.43
179.21
179.07
178.87
178.88
178.72
178.37
178.51
178.39
178.18
178.04
178
178.03
177.85
177.85
177.85
177.69
177.67
177.36
177.47
177.38
177.3
177.06
176.94
177.05
176.8
176.7
176.78
176.71
176.46
176.52
176.46
176.36
176.29
176.19
176.12
176.19
176.13
176.02
175.96
175.86
175.94
175.87
175.78
175.86
175.79
175.85
175.79
175.84
175.65
175.66
175.81
175.68
175.79
175.69
175.62
175.68
175.63
175.68
175.79
175.69
175.62
175.68
175.63
175.67
175.64
175.67
175.64
175.82
175.67
175.64
175.83
175.81
175.83
175.81
175.83
175.81
175.99
175.99
175.99
175.99
176.15
176.01
176.13
176.18
176.13
176.33
176.32
176.33
176.48
176.35
176.46
176.52
176.62
176.54
176.61
176.71
176.61
176.7
176.78
176.87
176.79
176.86
176.95
177.19
177.14
177.19
177.47
177.54
177.47
177.54
177.64
177.71
177.81
177.88
177.97
178.06
178.14
178.23
178.15
178.22
178.16
178.21
178.33
178.39
178.5
178.56
178.67
178.9
178.7
178.87
179.05
179.05
179.05
179.05
179.22
179.23
179.38
179.41
179.39
179.73
179.76
179.73
179.93
179.91
180.09
180.1
180.26
180.28
180.43
180.47
180.43
180.62
180.79
180.81
180.79
180.97
180.98
181.13
181.34
181.32
181.5
181.51
181.67
181.7
181.84
181.89
181.84
181.88
182.18
182.26
182.19
182.42
182.39
182.58
182.58
182.75
182.77
182.92
183.13
183.11
183.3
183.31
183.3
183.47
183.5
183.48
183.67
183.84
183.69
183.82
184.05
184.02
184.22
184.21
184.39
184.41
184.39
184.41
184.56
184.78
184.76
184.95
184.96
185.12
185.33
185.32
185.32
185.32
185.5
185.52
185.67
185.72
185.85
185.91
186.02
186.28
186.23
186.28
186.41
186.47
186.59
186.67
186.59
186.84
186.8
187.01
187
187.18
187.21
187.18
187.21
187.36
187.58
187.57
187.58
187.74
187.79
187.92
188.16
188.13
188.16
188.13
188.34
188.34
188.52
188.72
188.72
188.72
188.9
188.93
188.9
189.1
189.47
189.7
189.86
190.08
190.44
190.86
190.86
191.23
191.46
191.81
192.07
192.21
192.47
192.8
193.27
193.43
193.86
194.05
194.45
194.49
194.83
194.92
194.84
195.11
195.26
195.51
195.48
195.7
195.9
196.12
196.12
196.31
196.34
196.7
196.98
196.93
197.17
196.96
196.95
196.96
196.75
196.93
196.97
196.93
196.97
196.93
197.16
197.36
197.38
197.95
198.06
197.96
198.05
198.16
198.46
198.59
198.88
199.03
198.91
199.01
199.12
199.02
198.92
199
198.93
198.78
198.72
198.57
198.71
198.78
198.72
198.57
199.1
199.24
199.72
200.11
200.17
200.32
200.19
200.3
200.21
200.29
200.22
199.87
199.98
199.89
199.96
199.9
199.95
199.91
200.14
200.55
200.8
201
201.02
201.21
201.05
201.19
201.06
201.17
201.08
201.16
201.3
201.38
201.31
201.37
201.53
201.59
201.74
201.61
201.72
201.83
201.94
201.84
201.93
201.86
201.91
202.08
201.93
201.85
201.92
202.07
202.14
202.29
202.37
202.3
202.35
202.52
202.58
202.53
202.57
202.75
202.59
202.73
202.81
202.74
202.8
202.96
202.82
202.73
202.81
202.95
202.83
202.93
203.05
203.15
203.07
202.93
203.26
203.18
203.04
203.16
203.27
203.39
203.28
203.37
203.51
203.59
203.52
203.58
203.74
203.6
203.73
203.61
203.92
203.87
203.91
203.88
203.9
204.09
204.13
204.31
204.36
204.53
204.38
204.3
204.37
204.52
204.39
204.5
204.83
204.76
204.61
204.53
204.81
204.78
204.8
204.79
204.8
205
204.82
204.98
205.05
204.99
205.04
205.21
205.28
205.01
205.03
205.22
205.48
205.47
205.26
205.45
205.5
205.67
205.52
205.64
205.75
205.87
205.77
205.85
206
205.86
205.99
205.88
206.19
206.13
205.97
206.11
206.2
206.12
206.19
206.13
206.18
206.14
206.18
206.15
206.38
206.4
206.38
206.4
206.16
206.37
206.4
206.59
206.64
206.82
206.88
207.04
207.34
207.51
207.36
207.49
207.6
207.5
207.59
207.51
207.58
207.74
207.6
207.5
207.59
207.51
207.58
207.52
207.57
207.53
207.56
207.53
207.56
207.54
207.55
207.54
207.55
207.55
207.33
207.52
207.57
207.53
207.35
207.5
207.59
207.51
207.58
207.52
207.57
207.74
207.59
207.5
207.58
207.51
207.58
207.52
207.57
207.53
207.56
207.54
207.56
207.76
207.58
207.52
207.79
207.77
207.57
207.74
207.81
207.75
207.8
207.98
208.04
208.2
208.29
208.43
208.53
208.44
208.74
208.92
208.98
209.37
209.26
209.35
209.49
209.58
209.73
209.6
209.72
209.83
209.74
209.59
209.94
209.86
209.71
209.84
209.95
209.85
209.94
209.64
209.89
209.91
209.67
209.88
209.91
209.89
209.69
209.64
209.68
209.87
209.7
209.85
209.94
209.86
209.71
209.84
209.95
210.07
209.97
210.06
210.21
210.29
210.23
210.28
210.46
210.3
210.44
210.54
210.9
210.81
210.89
210.83
210.88
211.06
211.12
211.3
211.15
211.28
211.16
211.26
211.4
211.28
211.39
211.29
211.6
211.56
211.36
211.54
211.61
211.55
211.6
211.79
211.62
211.77
211.87
211.78
211.85
211.79
211.84
212.03
212.09
212.04
212.08
212.05
212.3
212.31
212.07
212.29
212.32
212.52
212.35
212.5
212.37
212.48
212.61
212.49
212.83
212.76
212.82
212.77
212.81
213.01
212.84
212.98
213.09
213.22
213.11
213.2
213.35
213.22
213.34
213.23
213.56
213.51
213.32
213.48
213.57
213.49
213.56
213.5
213.78
213.77
213.77
213.78
213.77
214.01
213.8
213.99
214.06
213.99
214.05
214.23
214.07
214.21
214.33
214.45
214.35
214.2
214.33
214.45
214.58
214.69
214.6
214.67
214.85
214.69
214.84
214.94
215.32
215.22
215.31
215.47
215.56
215.48
215.55
215.73
215.81
215.97
215.83
215.72
216.05
216
216.04
216.01
216.03
216.25
216.06
216.22
216.31
216.24
216.3
216.25
216.29
216.26
216.28
216.5
216.55
216.51
216.54
216.52
216.77
216.79
216.76
216.8
216.76
216.8
216.76
216.8
216.76
217.04
217.03
217.04
217.03
217.04
217.02
217.04
217.02
217.28
217.06
217.25
217.32
217.02
217.28
217.29
217.28
217.29
217.28
217.29
217.52
217.57
217.52
217.56
217.76
217.59
217.49
217.83
217.77
217.82
217.78
217.82
217.78
217.81
217.79
218.05
218.06
218.05
218.06
218.28
218.34
218.29
218.34
218.29
218.1
218.02
218.33
218.53
218.36
218.5
218.39
218.48
218.66
218.49
218.64
218.74
218.91
218.75
218.9
218.77
218.88
219.02
219.15
219.27
219.41
219.28
219.4
219.3
219.63
219.58
219.62
219.59
219.86
219.88
219.86
219.88
219.85
220.13
219.89
220.1
220.16
220.35
220.43
220.36
220.42
220.61
220.69
220.62
220.92
220.42
220.6
220.7
220.61
220.95
220.64
220.91
220.92
220.91
220.92
220.92
220.91
220.92
220.91
220.92
220.91
220.93
220.91
220.93
220.9
220.93
220.9
220.93
220.9
220.93
220.66
220.89
220.94
