792.52
791.72
792.49
791.75
791.92
791.45
792.18
792.02
792.75
792.33
793.27
792.69
793.23
792.73
793.18
793.04
792.91
791.95
791.99
791.15
791.34
790.66
790.43
791.44
791.35
791.44
791.61
791.48
791.58
791.52
791.27
791.25
791.24
790.75
790.34
790.21
789.48
789.36
788.89
788.81
788.31
788.52
788.29
788.8
788.05
787.95
788.52
788.6
788.74
789.74
789.09
788.38
787.1
786.93
786.76
786.44
785.61
785.85
785.07
785.01
784.23
784.42
784.22
784.17
782.87
782.73
782.04
782.4
782.07
782.11
781.54
781.01
779.38
777.45
775.77
774.93
774.62
774.64
774.11
774.06
773.85
773.27
773.01
772.47
771.92
771.64
770.62
769.98
769.29
769.37
768.81
768.26
768.01
764.96
762.14
760.61
759.98
760.02
759.52
759.43
759.3
758.64
758.51
758.35
758.52
758.58
758.56
757.81
758.25
758.33
758.54
757.35
756.7
756.26
756.18
755.73
755.66
754.97
755.35
754.76
754.8
754.51
754.77
754.29
753.75
753.72
753.52
752.96
753.45
753.02
753.15
753.04
752.89
753.27
752.94
752.5
752.16
751.49
751.83
751.31
750.79
750.77
750.77
750.78
750.52
750.76
750.54
749.78
749.71
749.79
749.46
749.29
749.18
749.29
748.94
748.78
748.66
749.02
748.46
748.72
748.49
748.7
748.98
748.98
748.5
748.44
748.72
748.49
748.44
748.97
748.75
748.71
748.73
748.96
749
748.73
748.72
748.97
748.74
749.18
749.04
748.92
749.27
749.21
749.49
749.73
749.52
749.47
749.27
749.92
749.85
749.42
749.56
749.67
749.81
749.93
749.83
750.39
750.16
749.86
750.37
750.16
750.11
749.91
749.85
750.37
750.41
750.13
750.14
750.36
750.42
750.11
750.39
750.62
750.67
750.62
750.67
751.09
751.22
750.62
751.15
750.93
751.12
751.19
751.13
751.19
751.38
751.21
751.59
751.75
751.6
751.5
751.58
752
751.87
751.74
751.85
751.76
752.31
752.09
752.03
752.1
752.02
752.34
752.05
752.56
752.35
752.05
752.3
752.34
752.29
752.34
752.29
752.59
752.8
752.63
752.52
752.63
752.77
752.9
752.77
753.38
752.84
752.83
752.84
752.59
752.8
752.62
752.53
752.62
752.3
752.58
752.33
752.55
752.61
752.31
752.33
752.79
752.64
752.76
752.91
753.01
753.17
752.78
753.13
753.3
752.67
753.21
753.25
753.43
753.29
752.91
753.5
753.21
753.48
752.99
752.94
753.46
753.51
753.21
753.24
753.2
753.73
753.51
753.22
753.22
753.47
753.49
753.72
753.51
753.94
753.81
753.67
753.8
753.45
753.99
753.77
754.19
754.32
753.95
754.28
754.23
754.28
754.23
754.28
754.48
754.31
753.96
754.51
754.04
754.44
754.34
754.18
754.33
754.43
754.6
754.44
754.59
754.94
754.65
754.88
754.7
754.59
754.95
754.86
755.2
755.37
755
755.06
755.03
755.02
755.55
755.07
755.75
755.39
755.47
755.87
756.02
755.88
756.02
755.88
756.02
756.13
756.29
756.13
756.03
756.35
756.33
756.09
756.56
755.9
756.47
756.47
756.71
756.99
756.74
756.48
757.19
757.07
757.16
757.1
757.37
757.65
757.39
757.39
757.61
757.69
757.59
757.94
757.86
757.96
757.61
758.18
757.91
758.16
758.17
758.42
758.68
758.71
758.42
758.69
758.69
758.95
758.47
758.89
759.01
758.91
758.75
758.64
759.22
759.22
758.72
758.91
758.99
759.17
759.26
759.19
759.24
759.69
759.55
759.67
759.57
759.65
759.83
759.67
760.06
760.21
759.83
759.66
759.81
760.42
760.15
760.12
760.16
760.11
760.41
759.9
760.35
760.69
760.4
760.4
760.9
760.46
760.85
760.51
761.04
761.08
760.79
761.3
761.35
761.31
761.34
761.32
761.82
761.64
761.54
761.88
761.82
762.13
761.61
761.57
761.85
761.86
761.85
761.61
761.32
761.82
761.39
761.51
761.66
761.52
761.65
761.53
761.64
761.79
761.42
761.73
761.97
761.75
761.7
761.49
761.93
761.54
761.88
762.33
761.94
762.27
762.49
762.29
762.96
762.38
762.63
762.91
762.91
763.17
762.94
763.14
763.46
763.19
763.17
763.44
763.2
763.66
763.01
763.32
763.56
763.59
763.57
763.57
763.59
763.56
763.59
763.8
763.88
763.55
763.85
763.83
764.35
763.9
763.8
764.13
764.34
764.41
764.35
764.15
764.57
764.21
764.27
764.23
764.5
764.77
764.28
764.71
764.83
764.73
764.56
764.71
764.58
764.7
764.84
764.97
765.1
764.49
765.01
765.07
765.01
765.33
765.04
765.3
765.31
765.06
765.02
765.32
765.54
765.61
765.29
765.57
765.32
766.04
765.42
765.45
765.69
765.48
765.67
765.49
765.9
766.05
765.92
765.78
765.9
765.79
765.89
766.05
766.16
766.32
766.18
766.29
766.45
766.56
766.47
766.29
766.7
766.85
766.48
766.54
766.49
766.52
766.75
766.55
766.98
766.6
766.68
766.62
766.67
766.88
766.69
766.85
767.22
766.9
766.92
767.16
766.7
767.1
767.01
767.08
767.27
766.85
766.97
766.62
767.17
767.45
766.95
767.38
767.51
767.4
767.24
767.38
767.52
767.39
767.25
767.62
767.81
767.89
767.57
767.59
768.08
767.4
767.74
767.95
767.52
767.89
767.57
767.84
768.12
767.87
768.09
767.9
768.07
768.17
767.83
768.12
768.38
768.15
768.35
767.92
768.29
767.98
768.24
768.28
768.23
768.53
768.26
768.26
768.5
768.3
768.21
768.3
768.21
768.81
768.28
768.49
768.81
768.53
768.51
768.79
768.8
768.8
768.54
768.76
768.57
768.74
768.85
768.75
769.09
769.05
768.58
768.98
769.14
769
769.38
769.05
769.33
769.34
769.33
769.59
769.36
769.31
769.35
769.32
769.6
769.36
769.56
769.65
769.56
769.89
769.6
769.86
770.14
769.9
769.85
769.64
769.57
770.14
769.64
770.32
770.25
769.79
770.2
769.84
770.41
770.17
770.12
770.67
770.7
770.67
770.7
770.68
770.69
770.93
770.98
770.43
770.65
770.46
770.62
771
770.92
770.74
770.64
770.73
770.9
771.26
770.95
770.97
771.2
771.25
771.46
771.03
771.14
771.56
771.45
771.29
771.17
771.28
771.68
771.59
771.66
771.87
771.68
771.85
771.45
772.05
772.04
771.79
771.76
772.03
771.8
771.99
771.84
772.21
772.16
771.93
772.4
772.23
772.39
772.24
772.38
772.5
772.92
772.3
772.58
772.33
773.05
772.7
772.48
772.43
772.21
772.41
772.22
772.65
772.78
772.67
772.5
772.41
772.48
772.43
772.46
772.7
772.74
772.71
772.72
772.98
773
772.74
772.7
773.51
773.05
772.94
772.78
772.67
773.27
773.01
772.97
773.52
773.04
773.21
773.32
773.48
773.34
773.2
773.58
773.51
773.56
773.52
773.55
774.03
773.87
773.5
773.82
774.06
773.85
773.77
773.84
774.29
773.91
773.98
774.18
774.25
774.45
774.27
774.44
774.54
774.46
774.27
774.44
774.03
774.38
774.34
774.37
774.34
774.37
774.35
774.36
774.36
774.35
774.36
774.35
774.62
774.64
774.63
774.63
774.88
774.41
774.31
774.91
774.9
774.65
774.61
774.65
775.13
774.71
774.81
774.74
775.04
775.3
774.56
774.95
774.86
774.94
775.13
774.71
774.81
775.24
775.12
774.97
775.35
775.03
775.04
775.04
775.29
775.6
775.06
775.28
775.34
775.55
775.11
775.24
775.89
775.58
775.33
775.56
775.62
775.82
775.64
775.54
776.14
776.14
775.88
776.11
776.16
776.38
775.93
776.06
776.21
776.33
776.49
776.09
776.18
776.61
776.24
776.3
776.52
776.57
776.28
776.27
776.29
776.26
776.3
776.24
776.82
776.57
776.54
776.3
776.52
776.58
776.79
776.6
776.51
777.1
776.6
776.76
777.15
776.29
776.78
776.86
777.05
777.15
776.81
776.84
777.07
777.13
777.08
777.12
777.34
777.15
777.06
777.14
777.07
777.38
777.37
777.38
777.37
777.38
777.38
777.63
777.67
777.63
777.67
777.63
778.18
777.96
777.64
777.92
778.19
778.47
777.97
777.89
778.48
777.97
778.15
778
778.12
778.54
778.16
778.5
778.21
778.46
778.24
778.17
778.75
778.25
778.42
778.79
778.72
778.27
778.39
778.56
778.92
778.62
778.6
778.9
778.63
779.13
778.43
778.78
779.24
779.11
778.96
778.84
779.45
779.45
779.18
779.42
779.46
779.44
779.19
779.16
779.69
779.76
779.43
779.73
779.72
779.99
779.75
779.7
779.74
779.97
779.77
779.94
780.31
779.99
779.75
779.96
780.29
780.01
779.99
780.53
780.32
780.5
780.09
780.18
780.63
780.23
780.32
780.24
780.06
780.47
780.38
780.44
780.14
780.65
781.01
780.42
781.2
780.77
780.63
781.01
780.69
780.95
781
780.68
781.23
780.75
780.65
780.73
781.19
781.56
780.98
780.7
780.96
780.98
781.23
781.01
780.94
781
780.96
781.24
781.26
780.72
781.19
781.04
781.17
781.32
781.19
781.31
781.46
781.33
781.44
781.35
781.42
781.37
781.41
781.38
781.65
781.95
781.42
781.63
781.7
781.64
781.95
781.69
781.64
781.7
781.63
781.96
781.93
781.97
781.92
782.23
781.95
782.2
781.98
782.44
782.3
782.16
782.29
782.43
782.57
782.45
782.29
782.43
782.83
783
782.6
782.68
783.14
782.74
782.82
783.01
783.11
783.29
782.87
782.71
783.11
783.28
783.4
783.04
783.09
783.31
782.85
783.5
783.47
783.23
783.45
783.51
783.72
783.27
783.41
783.81
783.99
783.83
783.71
783.81
784.25
783.87
783.67
784.1
783.99
784.35
784.05
784.03
784.32
784.32
784.33
784.05
784.56
784.64
784.31
784.59
784.88
784.62
784.59
784.35
784.56
784.64
784.84
784.93
785.11
785.21
784.86
784.9
785.39
784.71
785.03
785.55
785.09
785.49
785.15
785.18
785.68
785.25
785.35
785.53
785.63
785.55
785.35
785.79
785.93
785.82
785.65
785.54
785.89
786.38
785.69
785.76
785.96
786.05
785.71
785.74
785.98
786.03
786
786.02
786.27
786.31
786.28
786.04
786.51
786.63
786.52
786.62
786.54
786.87
786.58
786.82
787.41
786.63
786.78
786.92
787.06
787.21
787.07
787.19
787.35
787.22
787.33
787.24
787.57
787.82
787.33
787.24
787.31
787.25
787.3
787.27
787.28
787.54
787.31
787.78
787.63
787.5
787.61
787.52
787.6
787.79
787.89
787.81
787.61
788.05
787.93
787.77
787.91
787.78
788.16
788.1
788.15
788.37
787.91
788.05
788.2
788.33
788.22
788.31
788.5
788.59
788.52
788.84
788.84
788.3
789.04
789.19
789.59
789.25
789.53
789.56
789.79
790.13
790.09
790.14
790.35
790.44
790.09
789.87
790.32
791.01
790.13
790.36
790.43
790.64
790.73
790.64
790.45
790.62
790.75
790.63
790.47
790.87
790.8
790.58
790.78
790.86
790.8
790.84
791.09
791.13
790.84
790.81
791.11
790.84
791.09
791.13
791.37
790.89
791.04
791.17
791.33
791.19
791.31
791.21
791.29
791.49
791.31
791.47
791.6
791.75
791.62
791.73
791.9
791.49
791.84
792.08
791.87
792.32
792.2
792.04
792.44
792.36
792.43
792.38
792.14
792.62
792.21
792.03
792.72
792.12
792.36
792.7
792.39
792.67
792.42
792.64
792.72
792.66
792.44
792.36
792.69
792.94
792.46
792.61
792.75
792.9
793.03
793.18
793.86
794.08
794.15
794.09
794.14
794.1
794.13
794.11
794.39
794.42
794.38
794.7
794.42
794.39
794.41
794.67
794.71
794.41
794.67
794.72
795.2
794.8
794.33
795.01
794.95
795.01
794.95
795.28
794.99
795.24
795.3
795.24
795.03
795.21
795.33
794.94
795.55
795.56
795.28
795.79
795.63
795.76
795.66
795.47
795.91
795.25
795.82
795.87
795.83
795.6
795.79
795.9
795.8
795.89
796.07
795.66
795.73
796.22
795.79
795.9
796.07
796.19
795.81
795.07
795.17
795.36
795.18
795.08
795.16
795.63
795.49
795.35
795.73
795.68
795.72
795.7
795.7
796.24
795.77
795.91
795.79
795.63
796.04
795.69
795.71
796.5
796.09
796.17
795.84
795.85
795.58
795.26
795.82
795.6
795.52
795.58
795.81
796.15
795.86
795.83
796.14
796.13
796.15
796.12
795.88
796.34
796.5
795.81
796.15
795.85
796.39
796.19
796.09
796.17
796.37
796.47
796.38
796.46
796.66
796.49
796.91
797.36
797.23
797.61
797.82
798.18
798.15
797.91
798.11
797.94
798.35
798.27
798.06
798.79
798.43
798.2
798.4
798.5
798.95
798.57
798.35
799.09
798.99
798.53
798.65
798.83
798.94
798.85
798.92
799.14
798.67
798.81
798.96
799.1
799.25
798.85
799.19
799.45
799.21
799.15
798.93
798.86
799.18
799.18
799.17
799.46
799.48
799.47
799.2
799.44
799.23
799.14
799.21
799.15
799.47
799.47
799.19
799.44
799.5
799.72
799.52
799.7
799.82
799.71
799.81
799.99
799.57
799.66
799.59
799.91
800.19
799.66
799.85
800.22
800.19
799.94
799.89
800.19
799.94
799.87
800.22
799.9
800.19
800.2
799.93
800.42
800.56
800.15
800.52
800.19
800.76
800.26
800.42
800.83
800.74
800.55
800.45
800.8
800.77
800.52
800.74
801.1
801.06
800.82
800.75
801.08
801.07
800.81
800.77
800.53
801.01
801.14
801.02
801.4
801.07
801.08
801.35
801.39
801.62
801.15
801.28
801.72
801.34
801.4
801.34
801.12
801.86
801.5
801.52
801.52
801.5
801.81
801.53
803.97
806.26
807.04
808.01
808.29
807.76
808.23
808.1
808.49
808.43
807.92
808.36
808.26
808.62
808.32
808.29
808.89
808.36
808.27
808.34
808.56
808.64
808.57
808.63
808.59
808.62
808.6
808.61
808.89
808.92
808.62
808.59
808.9
808.63
808.87
808.38
808.8
809
808.54
808.94
808.87
808.93
808.88
808.65
809.4
809.03
808.79
809.29
809.4
809.59
809.14
808.98
809.39
809.32
809.1
809.02
809.35
809.63
809.1
809.3
809.12
809.28
809.41
809.3
809.67
809.64
809.38
809.61
809.68
809.63
809.39
809.6
809.69
809.62
809.4
809.59
809.7
809.89
809.72
809.59
809.7
809.88
809.73
809.86
809.47
810.08
809.84
809.75
810.41
809.83
810.33
810.17
810.31
810.47
810.06
810.13
810.63
810.48
810.33
810.18
810.59
810.52
810.29
810.77
810.63
810.47
810.33
810.17
810.59
810.79
810.34
810.45
810.08
810.67
810.45
810.34
811.01
810.14
810.62
810.76
811.2
811.38
810.66
811
810.99
810.99
811.28
811.03
811.25
811.05
811.23
812.2
812.76
812.27
812.97
812.93
813.24
812.99
812.63
813.23
812.98
813.21
813.01
812.9
813.55
813.28
812.94
812.96
812.93
813.26
812.96
812.94
813.23
812.99
812.91
813.27
813.23
813.56
812.99
813.48
813.34
813.17
813.04
813.15
813.06
812.57
812.44
812.54
812.74
812.56
812.73
812.3
812.95
812.95
812.66
813.2
812.74
813.13
813.08
812.83
813.34
812.89
813
812.91
813.27
813.24
813.26
813.53
813.57
813.54
813.28
813.22
813.55
813.56
812.98
813.2
813.58
813.53
813.57
813.54
813.28
813.51
813.31
813.48
813.62
813.77
813.65
813.75
813.95
813.77
813.65
814.02
813.71
813.69
813.73
813.96
814.34
813.71
813.98
814.02
814.28
814.33
813.73
813.96
814.34
813.99
814.3
813.75
814.23
814.38
813.97
814.32
814.02
814.27
814.34
813.99
814.59
814.07
814.23
814.1
814.2
814.68
814.26
814.35
815.12
814.74
814.49
814.72
814.79
814.46
814.45
815.04
815.08
814.77
814.74
814.79
815.01
815.12
814.73
815.08
815.04
814.81
814.99
815.13
815.28
815.46
814.72
815.37
815.36
815.66
815.11
815.02
815.1
814.75
814.21
814.11
814.2
814.69
814.27
814.34
814.85
814.4
814.79
814.45
814.74
815.06
814.5
814.7
814.81
815
815.13
814.73
815.07
815.06
814.79
815.02
815.1
815.31
815.14
815
815.69
815.65
815.4
815.62
815.72
815.91
815.47
815.56
815.78
815.86
815.8
815.83
815.82
816.1
816.16
815.8
816.13
815.83
816.38
815.9
816.32
815.96
816.27
816.57
816.3
816.26
816.29
816.55
816.89
816.6
816.56
816.89
816.6
816.85
816.91
817.15
817.23
816.87
816.89
817.17
816.93
817.42
817.28
817.11
817.26
817.13
817.53
817.47
817.52
817.19
817.18
817.48
818.35
818.46
818.64
818.79
818.93
819.11
818.65
819.06
818.98
819.06
818.98
819.05
819.27
819.09
818.95
819.37
819
819.32
819.33
819.32
819.61
819.36
819.29
819.36
819.58
819.68
819.31
819.63
819.92
819.67
819.6
819.66
819.61
819.94
819.66
820.18
820.02
819.86
820.3
820.19
820.01
820.16
820.33
820.45
820.36
820.71
820.42
820.36
820.73
820.11
820.66
820.74
820.97
821.05
820.7
820.7
821
820.73
820.98
820.75
820.95
821.06
820.97
820.76
820.95
821.06
821.25
820.8
821.19
821.43
820.93
821.37
820.99
821.02
821.29
821.05
821.55
821.12
821.2
821.43
821.51
821.16
821.45
821.79
821.77
821.51
821.43
821.52
821.43
821.81
821.46
821.77
821.78
821.5
821.73
821.83
822.02
821.87
821.69
822.16
822.02
822.15
822.03
822.15
822.03
822.15
822.03
822.43
822.37
822.14
822.04
822.42
822.66
822.46
822.05
822.41
822.1
822.65
822.47
822.33
822.74
822.67
822.74
822.39
822.41
822.96
822.49
822.6
822.81
822.32
823.04
822.42
822.95
822.78
822.92
823.39
822.69
823.29
823.35
822.72
823.27
823.37
822.99
823.32
823.32
823.61
823.66
823.03
823.57
823.68
823.58
823.39
823.55
823.99
823.61
823.65
823.91
823.97
824.2
823.72
823.56
824.27
823.94
823.94
823.95
823.94
823.95
823.64
823.91
823.68
823.88
824
823.89
823.98
823.9
823.68
823.87
824
823.89
823.7
823.86
823.73
823.84
823.75
823.53
823.72
823.55
823.7
823.57
823.69
823.87
824
823.6
823.65
824.19
824.01
823.88
824.28
823.94
824.23
824.27
824.8
825.23
824.84
825.48
825.5
825.77
825.83
825.78
826.11
826.12
825.81
826.09
825.85
826.34
826.21
826.32
826.52
826.63
826.55
826.6
826.85
826.92
826.87
826.9
826.89
826.89
827.19
826.92
827.16
827.52
827.51
827.8
827.86
827.5
827.82
827.54
827.79
827.57
827.47
827.55
827.78
827.58
827.75
827.32
827.39
827.62
827.42
827.6
827.73
827.91
827.46
827.27
827.72
827.63
827.41
827.31
827.1
827.88
827.49
827.53
828.09
827.89
827.77
827.59
828.03
828.23
827.76
827.88
827.78
828.16
827.84
827.81
828.13
828.14
828.14
828.14
828.15
827.84
828.11
828.16
828.7
828.24
828.05
828.22
828.07
828.79
828.46
828.15
828.71
828.52
828.97
828.88
828.95
829.19
828.97
829.17
829.29
829.49
829.31
829.47
829.62
829.49
829.3
829.76
829.66
829.75
829.67
829.74
829.97
830.06
829.99
830.05
830.29
830.08
829.97
830.06
830.28
830.09
830.25
830.41
830.27
830.39
829.99
830.33
830.63
830.37
830.6
830.4
830.57
831.01
830.34
830.62
830.97
830.66
830.94
830.1
830.24
829.84
829.59
829.81
829.61
829.79
829.63
829.48
829.9
829.83
829.88
830.14
829.91
830.41
829.98
830.06
830.28
830.09
830.26
830.11
829.94
830.38
830
830.03
830.31
830.35
830.32
830.05
830.29
830.37
830.3
830.65
830.65
830.35
830.62
830.38
830.88
830.16
830.48
830.51
830.76
830.85
830.46
830.81
831.08
830.87
830.45
830.82
831.08
831.16
830.49
831.08
830.86
831.05
831.18
831.07
831.46
831.71
830.91
831.3
831.85
831.66
831.54
831.63
832.15
831.99
831.84
832.26
832.2
832.54
833.14
833.49
834.08
834.45
835.03
835.11
835.05
834.8
834.72
834.78
835.33
835.15
835.01
834.83
835.28
834.9
834.93
835.21
834.66
835.13
835.02
835.12
835.04
835.1
835.06
835.09
835.36
835.12
835.04
834.81
835.01
835.13
835.32
835.16
835
835.73
835.4
835.08
835.67
835.45
835.64
835.48
835.61
835.5
835.29
835.78
835.95
835.8
835.63
835.49
835.9
836.14
835.63
835.78
836.24
836.15
835.92
835.83
836.2
836.18
835.89
836.15
836.21
836.76
836.58
836.74
836.9
836.47
836.84
837.12
837.16
837.13
837.15
837.74
837.52
837.42
837.8
837.77
837.79
837.48
837.44
837.79
837.78
838.09
837.82
837.76
838.1
837.81
837.76
838.11
838.1
838.41
838.14
838.08
838.43
838.43
838.12
838.39
838.76
839.03
838.5
838.95
838.57
838.29
838.55
838.61
838.87
838.33
838.21
838.6
838.87
838.63
838.55
838.31
838.83
839.27
838.9
838.91
839.21
838.93
838.89
838.32
839.12
839.03
838.8
839
838.83
838.97
838.85
838.95
839.47
839.02
839.11
839.03
838.79
839.31
838.86
838.94
839.48
839.31
839.15
839.29
839.47
839.61
839.2
839.55
839.85
839.58
839.52
839.27
839.79
839.64
839.47
839.62
839.79
839.94
839.81
839.63
840.08
839.99
839.76
840.27
840.42
840.29
840.1
840.27
840.72
840.64
840.4
840.61
840.73
840.63
840.41
840.61
841.03
840.97
841.01
840.69
840.96
841.34
840.69
840.96
841.02
840.97
841.31
841.03
841.56
841.42
841.22
841.41
841.53
841.45
841.19
841.74
841.85
841.77
841.22
841.71
841.88
842.35
841.93
842.29
842.89
842.98
842.89
843.27
843.25
843.87
843.64
844.13
844.03
844.4
844.4
844.38
844.73
844.7
844.45
844.63
844.81
844.63
845.12
844.97
845.73
844.74
845.31
845.42
845.34
845.7
845.7
845.38
845.97
845.76
845.95
846.08
846.28
846.11
846.25
846.43
846.58
846.15
846.52
846.51
846.81
846.87
846.5
846.83
846.54
846.8
846.87
846.51
846.21
846.78
846.89
846.8
847.18
847.16
846.56
847.08
847.54
847.15
847.18
847.16
846.86
847.43
847.24
847.41
847.57
847.43
847.25
847.4
847.57
847.42
847.25
847.7
847.62
847.69
848.25
847.76
847.87
848.08
847.59
848.01
847.96
848
847.98
847.99
848.9
848.42
848.53
848.74
848.55
848.41
848.22
848.08
848.51
848.15
848.14
847.86
848.09
848.52
848.13
848.78
848.82
848.79
848.81
848.8
848.8
849.12
848.53
849.04
848.91
848.1
848.8
848.81
849.1
849.17
848.79
849.13
848.83
849.09
849.17
849.41
848.9
849.03
848.92
849.31
848.99
849.25
849.05
849.19
849.4
848.89
849.36
848.93
849.01
849.23
849.06
849.19
849.41
848.89
849.36
848.63
849.27
848.71
848.88
849.05
848.9
849.03
849.22
849.06
849.5
849.44
849.17
849.11
849.15
849.13
849.13
849.45
849.78
849.51
849.41
850.13
850.72
851.45
851.11
851.42
851.45
851.43
851.44
851.44
851.43
851.76
851.47
851.73
851.5
851.69
851.84
851.4
851.78
851.77
851.46
851.73
851.5
852.01
851.57
851.63
851.9
851.65
851.88
851.68
851.85
851.7
851.53
851.67
852.17
851.43
851.75
852.1
852.1
852.11
851.79
852.38
852.18
852.04
852.16
851.74
852.41
852.46
852.1
852.11
852.09
852.42
852.44
852.12
852.39
852.47
852.4
852.16
852.05
852.46
852.4
852.46
852.41
852.46
852.72
852.81
852.42
852.45
852.73
852.49
852.69
852.83
852.7
852.21
852.31
852.54
852.64
852.88
852.66
853.17
853.03
852.53
852.96
853.22
852.99
852.89
852.96
853.52
853.34
853.19
853.32
853.52
853.35
853.5
853.37
853.48
853.39
853.46
853.4
853.13
853.68
853.82
853.4
853.76
853.77
853.75
853.78
854.05
854.14
853.73
854.1
854.08
854.11
854.07
854.11
854.38
854.47
854.07
854.43
854.42
854.75
854.76
855.06
855.11
855.07
854.8
855.03
855.14
855.36
854.86
854.66
855.15
855.03
855.14
855.36
855.79
855.73
855.16
855.65
855.55
855.62
855.88
855.65
856.17
856.02
855.53
855.64
855.55
855.93
856.24
855.96
856.21
855.99
856.19
856.01
856.16
856.34
856.5
856.36
856.48
856.38
856.15
856.66
856.54
856.33
856.2
856.3
856.54
856.33
856.51
856.35
856.18
856.64
856.24
856.58
856.61
856.26
856.58
856.29
856.85
856.68
856.21
856.61
856.27
856.56
856.63
856.24
856.59
856.6
856.59
856.28
856.55
856.63
856.56
856.31
857.15
856.43
856.41
856.76
856.75
857.4
856.83
857.02
857.47
857.4
857.14
856.75
856.76
857.39
856.84
857.01
856.86
856.99
857.19
856.71
857.43
857.13
857.06
857.45
857.1
857.41
857.13
857.07
857.43
857.75
857.46
857.4
857.45
857.73
857.17
857.34
857.51
857.67
857.85
857.69
857.52
857.98
857.59
857.6
857.92
857.94
857.93
857.62
857.9
857.64
857.56
857.94
858.25
857.97
857.9
857.95
858.54
858.34
857.89
857.96
858.22
857.99
857.88
857.66
857.85
857.69
857.83
858.02
857.54
857.96
857.6
857.59
857.92
857.62
857.89
857.66
857.86
858
857.57
857.62
857.89
857.66
857.55
857.33
857.83
857.71
857.18
857.65
857.24
857.59
857.61
857.27
857.57
857.31
857.54
857.65
857.86
857.37
857.48
857.71
857.81
857.73
857.48
857.71
857.81
858.35
857.57
857.62
857.89
857.65
857.86
857.68
858.15
857.75
857.46
857.72
858.11
857.79
858.05
857.84
858.31
858.25
857.65
858.19
858.01
858.19
857.71
857.82
858.02
858.18
857.71
858.13
858.08
858.75
857.85
857.99
858.82
858.73
858.5
858.38
858.49
858.7
858.21
858.31
858.24
858.29
858.58
858
858.2
858.64
858.27
858.26
858.6
858.29
858.57
858.62
858.91
858.34
858.53
858.36
858.82
858.73
858.49
858.7
859.15
858.76
858.78
858.77
858.77
859.09
858.5
859.01
858.57
858.94
858.95
858.61
859.23
859
858.9
859.29
859.27
859.27
859.6
859
859.83
859.43
859.14
859.4
859.48
859.73
859.2
859.34
859.85
859.73
859.51
859.7
859.54
859.99
859.29
859.26
859.92
859.03
859.49
859.73
859.83
859.75
859.49
860.03
860.19
860.06
860.17
859.77
860.1
860.14
859.78
860.1
860.13
860.74
860.21
860.04
860.81
860.47
860.44
860.48
860.75
860.84
860.43
860.49
860.74
860.85
860.43
860.8
861.41
861.84
861.46
861.8
862.13
862.16
862.13
862.16
862.13
862.48
862.49
863.12
862.89
862.76
863.2
863.13
863.51
862.87
863.1
863.86
863.51
863.81
863.56
864.09
864.59
864.15
864.22
864.15
864.53
864.52
864.21
864.79
864.93
864.8
864.61
864.77
864.96
864.78
864.63
865.07
865.34
864.45
864.91
864.83
865.22
865.2
864.58
865.11
864.98
865.08
865.32
865.1
865.3
865.12
865.29
865.77
866
866.11
865.7
865.73
865.72
865.39
866.01
865.79
865.66
866.08
865.41
865.66
865.46
865.29
865.46
864.98
865.41
865.02
864.74
864.97
865.1
864.34
864.68
864.7
865.01
865.06
864.69
865.01
865.06
865.02
864.75
864.33
865.01
864.74
864.33
864.38
864.33
864.69
864.38
864.65
864.42
863.98
864.36
864.35
864.36
864.04
864.31
864.4
864.31
864.08
864.27
864.44
864.59
864.16
864.19
864.51
864.53
863.9
864.1
864.28
864.72
864.7
863.72
864.28
864.08
864.29
864.08
864.29
864.08
863.97
863.72
863.96
863.73
863.32
862.7
862.95
862.4
861.31
860.65
860.61
860.31
860.59
860.02
860.52
860.08
860.46
860.45
860.14
860.42
860.81
860.16
860.39
860.21
860.03
860.2
860.04
860.2
859.41
859.79
860.08
859.53
859.36
859.53
859.37
859.21
859.64
859.61
859.29
859.59
859.62
859.62
859.59
859.33
859.21
859.35
858.88
859.63
858.96
858.93
859.25
859
859.19
859.37
858.56
859.28
858.64
858.58
858.62
858.29
858.25
858.3
858.24
858.3
857.92
858.26
857.96
858.23
857.99
857.88
857.98
858.21
857.7
857.5
857.37
857.48
857.4
857.14
857.69
857.52
857.36
857.49
857.39
857.46
857.41
857.44
857.75
857.46
857.1
857.08
857.43
857.74
857.49
857.05
857.77
857.44
857.74
857.16
857.35
857.81
857.42
857.43
857.75
857.77
857.77
857.44
857.74
857.79
857.75
857.46
857.41
857.44
857.42
857.12
857.39
857.15
857.67
857.53
857.03
857.78
857.45
857.41
857.45
857.41
857.77
857.45
857.73
857.8
857.74
857.79
857.75
857.78
857.75
857.77
857.76
858.08
858.12
858.08
857.81
858.04
858.16
857.73
858.11
858.09
858.42
858.45
858.11
858.72
858.82
858.73
858.81
858.43
858.44
858.74
858.8
859.06
858.83
858.72
858.82
858.42
858.76
858.47
858.71
858.83
858.72
858.83
858.72
858.82
859.03
858.87
858.68
859.17
858.74
859.12
858.78
859.08
859.14
858.77
859.09
858.82
859.04
859.17
858.73
859.43
859.14
859.08
858.82
858.73
859.44
859.14
859.08
859.14
859.08
859.45
859.44
858.82
859.04
858.86
859
858.89
858.35
859.14
858.77
858.78
859.08
859.13
859.09
859.13
858.47
859.34
859.23
859
859.53
859.06
859.16
858.75
859.42
859.47
858.8
859.69
859.56
859.34
859.23
859.31
859.26
859.28
859.6
859.31
859.57
859.64
859.6
859.31
859.57
859.33
859.86
859.4
859.8
859.77
859.48
859.73
859.51
859.7
860.17
859.45
859.75
860.13
859.8
859.77
859.47
860.05
859.87
860.02
860.21
860.04
859.87
860.01
860.21
860.04
860.19
860.06
860.49
860.43
860.16
860.09
860.14
860.73
859.91
860.3
860.6
860.33
860.26
860.31
860.58
860.66
860.29
860.6
860.97
860.64
860.62
860.31
860.58
860.66
860.28
860.61
860.96
860.65
860.61
860.64
860.93
861.31
860.99
861.25
861.66
861.3
860.99
860.94
861.93
861.39
861.22
861.06
861.19
861.41
861.21
861.39
861.22
861.37
861.87
861.45
861.48
861.79
861.5
861.76
861.21
861.69
861.59
861.37
861.87
861.76
861.53
861.73
861.87
861.76
861.53
862.05
862.23
861.76
861.84
862.1
862.19
862.43
861.58
862
861.96
861.99
862.29
862.02
862.26
862.37
861.96
861.99
862.29
862.34
862.3
861.7
862.22
862.4
862.24
862.38
862.58
862.72
862.6
862.07
862.52
862.46
862.51
862.47
862.49
862.49
862.16
862.45
862.83
863.14
862.86
863.11
863.21
863.44
862.93
863.05
863.58
863.12
863.2
863.13
863.51
863.19
862.82
863.47
863.22
863.43
863.25
863.09
863.55
863.46
863.22
863.43
863.26
863.4
863.28
863.37
863.31
863.35
863.64
863.38
863.3
863.99
863.41
863.57
864.09
863.3
864
863.39
863.61
864.05
863.67
863.67
864
864.02
864.33
864.06
864.61
864.45
863.95
864.07
863.97
864.37
864.35
864.36
864.99
864.44
864.28
864.74
864.66
864.73
864.67
864.72
865.31
864.48
864.87
864.87
864.85
865.2
864.57
865.13
865.27
865.16
864.93
864.81
865.22
865.2
864.57
865.12
865.28
865.15
864.94
864.81
865.23
865.19
864.9
865.48
865.29
865.14
864.95
865.11
864.97
865.09
865.31
865.44
865.64
865.15
865.26
865.49
865.6
865.51
865.26
865.48
865.61
865.81
865.32
865.42
865.98
865.82
865.64
865.15
865.57
865.85
865.6
865.82
865.31
865.75
865.7
865.41
865.99
865.49
865.6
865.82
865.95
865.84
865.61
865.81
865.96
865.83
865.62
865.49
865.6
866.14
865.36
865.39
866.01
865.15
865.58
865.53
865.88
865.9
865.24
865.5
864.95
865.74
865.71
865.4
865.36
865.7
865.74
865.69
865.75
865.68
865.76
865.36
866.04
865.44
865.32
865.74
865.7
865.41
865.35
865.4
865.68
865.43
865.33
865.42
865.66
865.77
865.36
865.39
866
865.48
865.61
865.5
865.9
865.89
865.57
865.86
865.59
865.83
865.94
865.85
866.23
865.6
865.81
866.61
866.22
866.57
865.94
866.49
866.65
866.51
866.31
865.84
866.24
866.54
865.96
866.15
866.31
866.17
866.29
866.19
866.27
866.52
865.98
866.45
866.37
866.11
866.66
866.5
866.64
866.52
866.3
866.81
866.69
866.47
866.67
866.81
867.01
866.83
866.67
866.81
867.01
866.52
866.62
867.17
867.34
867.19
867
866.85
866.98
867.18
867
867.16
867.35
867.18
867.33
866.88
866.94
866.9
866.93
867.23
866.97
867.19
867.32
867.21
867.62
867.59
867.29
867.55
867.32
867.52
867.35
867.49
868.02
867.24
867.59
867.94
867.63
867.58
867.3
867.54
867.65
867.56
867.64
867.57
867.95
868.26
867.35
867.5
868.02
868.2
868.05
867.53
867.66
867.87
867.69
867.84
868.36
868.23
868.02
868.2
868.37
868.22
868.03
868.19
868.38
868.53
868.08
868.14
868.74
868.53
868.4
868.51
868.42
868.49
868.12
868.43
868.5
868.1
868.46
868.14
868.74
868.86
868.44
868.48
868.77
868.19
868.69
868.91
869.03
868.61
868.32
868.9
869.04
868.61
868.65
868.95
869
869.28
868.71
868.89
869.37
869.6
868.76
868.84
869.41
868.92
869.34
869.31
869.33
869.64
869.04
869.57
869.75
869.27
869.68
869.66
869.67
869.35
869.29
869.68
869.65
869.36
869.28
869.37
869.6
869.73
869.28
869.68
869.32
869.64
869.69
869.65
869.68
869.65
869.67
869.66
869.67
869.66
869.35
869.62
869.39
869.58
869.74
869.6
869.41
869.56
869.76
869.9
869.79
869.23
870.04
869.98
869.72
869.62
869.71
869.95
870.06
869.96
869.73
870.25
870.46
869.94
870.39
870.64
870.43
870.29
870.42
870.3
870.08
870.27
870.44
869.96
870.05
870.29
870.09
870.26
870.44
869.64
870.33
870.06
870.28
870.42
869.97
870.69
870.38
870.33
870.38
870.34
870.69
870.71
870.37
870.67
870.41
870.63
870.77
870.96
871.12
870.98
870.79
870.62
871.09
871.01
870.76
870.97
870.79
870.62
870.77
870.96
871.13
870.98
871.11
871.32
871.14
870.64
871.07
871.03
871.38
871.08
870.69
871.36
871.1
871
871.08
871.02
871.39
871.07
870.7
871.35
871.43
871.69
871.15
871.28
871.82
871.35
871.43
871.68
871.79
872.34
871.54
871.58
871.89
871.61
871.86
871.31
871.79
871.7
871.45
871.67
871.48
871
871.73
871.75
871.72
871.76
871.72
872.09
871.76
872.05
871.79
871.69
871.78
871.71
872.09
871.76
871.71
872.09
871.75
872.05
872.12
872.06
871.78
871.7
872.09
872.4
871.81
872
872.17
871.69
872.1
872.07
872.74
872.49
872.05
872.12
872.05
872.44
871.77
872.03
872.46
872.41
872.13
872.69
872.53
872.99
872.93
872.96
873.28
872.34
873.16
872.45
872.41
872.78
872.78
873.11
873.14
873.11
873.14
872.8
873.41
873.54
873.09
873.17
873.41
873.53
873.74
874.22
873.8
873.84
873.8
874.49
873.9
873.75
874.21
874.13
874.53
874.19
874.81
874.6
874.44
874.91
874.5
874.54
874.83
874.9
874.83
874.9
875.17
875.26
875.18
875.25
875.51
875.62
875.84
875.33
875.76
876.05
875.79
875.7
875.44
876
876.49
875.75
876.05
876.46
876.41
876.47
876.08
876.76
876.16
876.03
876.14
875.72
876.08
876.43
876.12
876.07
876.1
876.41
876.14
876.37
876.5
876.39
875.84
875.66
876.14
876.37
876.18
876.01
876.49
876.08
876.1
876.41
876.14
876.37
876.18
876.01
876.49
876.07
876.43
876.13
876.38
876.5
876.06
876.77
876.16
876.35
876.2
876.32
876.55
876.01
876.49
876.72
876.2
876.32
876.23
876.61
876.63
876.27
876.6
876.62
876.29
876.23
876.3
876.55
876.68
875.89
876.59
876.63
876.94
876.34
876.53
877.02
876.6
876.3
876.56
876.33
876.53
876.36
876.18
876.34
876.52
876.7
876.54
876.68
876.89
876.71
876.86
876.74
876.83
876.76
877.14
877.48
877.17
876.8
876.78
877.47
877.18
877.44
876.88
877.36
877.28
877.35
877.29
877.34
877.96
877.42
877.23
878.05
877.67
877.34
877.63
877.7
877.97
877.41
877.56
878.09
877.63
877.7
877.64
878.02
878.03
877.36
877.94
878.09
877.95
877.75
877.6
878.06
878.31
877.77
877.91
878.12
877.93
878.1
877.62
877.71
877.96
877.74
878.26
878.14
878.23
878.17
877.88
878.14
877.91
878.12
878.26
878.14
878.24
878.16
878.22
878.5
877.92
878.1
878.28
878.45
878.63
878.15
878.23
878.49
878.26
878.46
878.29
878.44
878.64
878.46
878.62
878.48
878.6
878.5
878.26
878.47
878.61
878.81
878.97
878.83
878.63
878.48
878.28
878.77
878.35
878.38
878.7
878.74
878.72
878.06
878.64
878.46
878.62
878.81
878.64
879.11
879.37
878.49
878.92
879.21
878.96
879.18
878.99
879.48
879.39
879.13
879.36
879.48
879.38
879.14
879.02
879.11
879.04
879.1
879.39
879.46
879.4
879.12
879.37
879.8
879.43
879.09
879.39
879.78
879.78
879.44
879.74
879.81
879.75
879.8
879.76
879.79
879.77
879.45
879.73
879.82
880.07
879.86
880.04
879.89
880.33
880.29
880.31
880.64
880.67
880.33
880.28
881.33
880.74
880.6
880.71
880.62
880.69
880.64
880.67
880.66
880.66
881.33
881.4
881.68
881.1
880.94
881.41
881.34
881.06
880.98
880.72
881.28
881.12
881.25
881.15
881.56
881.87
881.26
881.13
881.24
881.49
881.27
881.13
880.92
881.76
881.36
881.37
881.7
881.41
881.67
881.44
881.64
881.8
881.66
882.11
882.38
882.15
882.02
881.79
882.32
882.2
881.64
882.13
882.04
882.11
882.05
882.1
882.72
882.19
881.98
882.16
882.33
882.52
882.02
882.46
882.75
882.49
882.71
882.53
883.01
882.93
882.99
883.61
883.4
883.92
883.8
883.57
883.77
883.6
883.74
884.29
884.14
883.61
884.4
884.39
884.05
884.36
884.08
884.33
884.11
883.64
884.04
884.36
884.07
884.66
884.49
884.64
884.84
884.99
885.2
885.35
885.89
885.09
885.11
885.1
884.77
885.07
884.8
885.36
885.21
885
885.19
884.69
885.12
885.09
884.78
885.05
885.15
885.4
885.18
885.03
884.83
885.33
885.58
885.69
886.27
886.09
885.25
884.97
885.55
885.38
885.2
885.35
885.56
885.7
885.26
885.3
885.61
885.33
885.58
885.36
885.55
885.71
885.24
885.64
885.98
886.01
885.66
885.28
885.62
885.32
885.25
885.64
885.65
885.29
885.61
885.33
886.24
886.13
886.21
886.15
886.19
887.17
886.65
886.43
886.62
886.46
886.59
886.48
886.57
886.84
886.27
886.43
886.95
886.84
886.6
886.48
886.57
886.84
886.6
886.81
886.63
886.79
886.99
887.14
887.34
886.84
886.93
886.86
886.92
887.21
886.61
886.47
886.92
886.54
886.53
886.21
886.13
885.89
885.08
885.79
885.84
885.8
885.83
886.15
886.53
886.21
886.14
886.54
886.52
886.22
886.14
886.22
886.47
886.6
886.14
886.54
886.52
886.54
886.19
886.5
886.23
886.45
886.61
886.13
886.55
886.52
886.22
886.14
886.54
886.19
886.49
886.57
886.5
886.57
886.17
886.85
886.94
886.85
886.6
886.47
886.92
886.86
886.59
886.82
886.63
886.78
886.66
886.41
886.65
886.76
887.01
887.12
887.04
887.09
887.06
886.73
887.37
886.47
886.92
886.87
886.91
887.21
886.95
886.84
887.27
887.24
887.26
886.91
887.2
887.63
886.92
887.2
887.3
887.21
887.28
886.89
887.23
887.28
886.89
887.23
886.93
887.19
887.3
887.21
887.29
886.88
887.23
887.27
887.56
887.99
887.61
887.61
887.6
887.62
887.93
887.67
887.22
886.95
886.17
886.52
886.21
886.47
886.25
885.44
885.81
886.16
885.52
886.07
885.94
886.04
885.97
885.35
885.9
885.75
885.88
886.09
885.58
885.68
885.61
885.66
885.96
885.36
885.55
885.71
885.91
886.4
885.99
886.33
886.38
885.66
886.29
886.07
885.93
886.38
886.33
886.37
886.35
886.36
886.69
886.06
886.61
885.81
886.15
886.2
886.14
886.55
886.18
886.18
886.5
886.57
886.49
886.58
886.15
886.87
886.57
886.5
886.89
886.56
886.5
886.57
886.5
886.57
886.49
886.91
886.87
886.91
886.87
886.92
886.87
887.25
886.58
886.83
887.29
886.89
886.9
887.22
887.27
887.57
887.32
887.53
887.69
887.54
887.34
887.5
888.04
887.9
887.69
887.53
888.01
888.26
887.38
887.46
888.08
887.87
888.06
888.22
888.42
888.24
888.41
888.6
888.43
887.9
888.7
888.35
888.64
888.73
888.64
889.07
888.36
888.97
889.45
888.7
889.35
888.8
889.25
889.22
888.89
889.2
889.24
889.9
889.65
889.88
889.67
889.86
889.69
890.52
889.8
890.08
890.18
890.42
890.56
889.75
890.13
890.47
890.18
890.42
890.56
890.76
890.94
890.44
890.88
890.49
890.83
891.21
890.88
890.82
891.22
891.21
891.22
891.22
891.55
891.26
891.17
891.93
891.61
891.54
891.61
891.88
892.33
891.94
891.94
892.28
891.99
892.23
892.03
891.85
892.36
891.58
891.58
891.58
891.24
890.86
891.19
891.58
891.24
890.52
890.8
890.9
890.81
891.23
890.86
891.18
891.24
890.85
891.19
891.24
891.53
890.95
891.1
891.66
891.16
890.93
891.12
891.3
891.47
891
891.05
891.03
891.03
891.05
890.34
890.63
891.04
891.04
890.68
891.01
890.71
890.98
890.74
890.95
891.1
890.98
891.08
891
891.06
891.01
890.71
891.32
891.47
891.34
891.45
891.69
891.48
891.32
891.46
891.68
891.83
892.03
892.2
892.39
892.57
892.07
892.16
892.76
892.25
892.68
892.66
