310.86
310.62
310.69
310.63
310.55
310.48
310.41
310.34
310.26
310.19
309.99
310.03
310
309.89
309.85
309.74
309.7
309.6
309.43
309.44
309.43
309.3
309.28
309.16
309.14
309.15
309.01
308.86
308.86
308.73
308.85
308.74
308.7
308.6
308.56
308.46
308.41
308.45
308.42
308.18
308.25
308.19
308.11
308.05
307.97
307.91
307.96
307.92
307.81
307.77
307.67
307.76
307.68
307.75
307.56
307.46
307.55
307.47
307.4
307.33
307.26
307.46
307.16
307.28
307.31
307.15
307.16
307.01
307.14
307.16
307.15
307.03
307
307.02
306.87
306.87
307.01
306.89
306.86
306.88
306.86
307.01
306.88
306.99
307.04
306.99
307.03
306.99
307.03
306.99
306.9
306.98
307.04
306.98
307.04
306.99
307.17
307.14
306.9
306.97
307.05
306.98
307.04
306.99
307.17
307.14
307.03
307.13
307.18
307.27
307.06
307.1
307.2
307.24
307.34
307.12
307.18
307.39
307.21
307.23
307.35
307.38
307.49
307.26
307.33
307.27
307.45
307.3
307.29
307.43
307.44
307.44
307.43
307.44
307.43
307.58
307.58
307.58
307.57
307.59
307.57
307.59
307.57
307.72
307.58
307.71
307.73
307.71
307.86
307.74
307.71
307.6
307.69
307.62
307.67
307.77
307.68
307.76
307.68
307.89
307.7
307.87
307.99
308.02
307.99
307.88
308.11
308.05
308.1
308.06
308.22
308.36
308.1
308.32
308.26
308.45
308.29
308.29
308.56
308.59
308.43
308.57
308.45
308.68
308.62
308.66
308.77
308.8
308.92
308.8
309.05
309.1
309.06
308.95
309.19
309.24
309.07
309.08
309.22
309.22
309.36
309.23
309.35
309.24
309.34
309.25
309.33
309.39
309.34
309.38
309.49
309.52
309.5
309.38
309.62
309.41
309.59
309.57
309.72
309.73
309.58
309.71
309.73
309.72
309.72
309.72
309.85
309.88
309.85
310.02
310
310.15
310.02
310.14
310.17
310.14
310.03
310.13
310.31
310.29
310.17
310.28
310.32
310.28
310.18
310.27
310.32
310.28
310.18
310.26
310.46
310.29
310.3
310.3
310.43
310.45
310.3
310.44
310.45
310.44
310.31
310.29
310.44
310.58
310.32
310.55
310.49
310.54
310.37
310.24
310.35
310.38
310.36
310.38
310.37
310.37
310.37
310.23
310.49
310.26
310.33
310.14
310.03
310.26
310.06
309.96
309.92
309.96
309.92
309.81
310.05
309.98
309.63
309.66
309.77
309.68
309.49
309.38
309.61
309.41
309.32
309.27
309.18
309.26
309.05
308.96
309.17
308.99
308.88
308.98
309.02
308.99
308.88
308.84
308.88
308.85
308.74
308.7
308.86
308.86
308.72
308.71
308.72
308.85
308.73
308.71
308.73
308.84
308.74
308.83
308.89
308.84
308.75
308.83
309.03
308.85
308.87
308.86
308.86
308.99
308.75
308.83
308.76
308.95
308.92
308.81
308.91
308.95
308.92
308.81
308.91
308.95
308.92
308.94
308.92
308.94
308.93
308.8
308.92
308.95
308.92
308.81
308.91
308.82
308.77
308.81
308.91
308.96
308.78
308.8
309.05
308.96
308.77
308.67
308.76
308.82
308.63
308.66
308.64
308.65
308.64
308.52
308.76
308.55
308.46
308.54
308.47
308.27
308.31
308.41
308.32
308.4
308.19
308.11
308.18
308.12
308.04
307.98
307.9
307.97
307.9
307.83
307.76
307.82
307.64
307.66
307.64
307.39
307.47
307.54
307.48
307.4
307.21
307.24
307.34
307.25
307.2
307.11
307.19
306.86
306.87
306.87
306.87
306.88
306.6
306.71
306.74
306.59
306.46
306.57
306.47
306.56
306.35
306.27
306.34
306.28
306.07
305.99
306.19
306.02
305.9
305.87
305.76
305.86
305.78
305.59
305.75
305.61
305.47
305.46
305.2
305.3
305.22
305.16
305.21
305.16
305.07
305.02
304.94
304.88
304.8
304.86
304.94
304.87
304.81
304.73
304.8
304.61
304.64
304.61
304.64
304.62
304.5
304.6
304.65
304.61
304.38
304.45
304.4
304.31
304.26
304.17
304.38
304.32
304.11
304.03
304.23
304.19
303.97
303.9
303.96
303.78
303.81
303.78
303.8
303.92
303.82
303.9
303.7
303.74
303.84
303.75
303.83
303.63
303.67
303.77
303.69
303.76
303.7
303.75
303.84
303.63
303.68
303.77
303.82
303.64
303.66
303.78
303.94
303.93
303.67
303.77
303.94
303.92
303.81
303.78
303.8
303.92
303.82
303.77
304.07
303.94
303.92
304.08
303.94
303.8
303.92
304.08
304.06
304.08
303.93
304.06
304.08
304.2
304.09
304.18
304.24
304.19
304.23
304.19
304.36
304.22
304.2
304.47
304.5
304.35
304.35
304.48
304.49
304.61
304.51
304.6
304.65
304.73
304.67
304.72
304.94
304.75
304.78
304.88
305.06
305.04
304.92
305.02
305.2
305.17
305.19
305.05
305.3
305.35
305.3
305.47
305.45
305.74
305.62
305.59
305.75
305.87
305.77
305.86
306.04
306.14
306.06
306.26
306.35
306.4
306.49
306.67
306.92
307.09
307.21
307.37
307.77
307.55
307.87
308.25
308.45
308.55
308.6
308.82
309.03
309.12
309.18
309.26
309.45
309.55
309.33
309.39
309.34
309.38
309.35
309.24
309.34
309.38
309.48
309.39
309.6
309.42
309.31
309.28
309.3
309.15
309.01
309.14
309.02
308.99
308.88
308.98
309.03
308.72
308.85
309.01
309
309.01
308.86
308.86
308.99
309.15
308.88
308.85
309
309.01
308.87
308.99
309.02
309.13
309.03
308.98
309.29
309.43
309.17
309.26
309.32
309.53
309.35
309.5
309.51
309.5
309.65
309.64
309.79
309.66
309.78
309.67
309.9
309.97
310.04
309.85
310.15
310.03
310.13
310.18
309.99
310.3
310.16
310.28
310.31
310.29
310.31
310.42
310.46
310.56
310.47
310.55
310.49
310.54
310.63
310.68
310.78
310.69
310.77
310.84
310.78
310.83
310.92
310.84
310.91
310.85
310.9
311.12
311.07
311.12
311.21
311.13
311.2
311.27
311.35
311.42
311.36
311.41
311.5
311.55
311.51
311.55
311.66
311.69
311.66
311.69
311.8
311.84
311.81
311.83
311.95
311.85
311.94
311.99
311.95
311.99
311.95
312.12
312.11
312.11
312.25
312.13
312.24
312.28
312.38
312.3
312.5
312.46
312.49
312.47
312.48
312.62
312.77
312.78
312.63
312.77
312.91
312.93
312.91
312.93
312.91
313.07
313.06
313.21
313.21
313.22
313.21
313.36
313.36
313.5
313.38
313.48
313.67
313.78
313.68
313.63
313.68
313.78
313.83
313.92
313.98
314.06
313.99
314.19
314.3
314.2
314.29
314.35
314.44
314.36
314.43
314.5
314.58
314.37
314.55
314.68
314.71
314.68
314.7
314.82
314.86
314.69
314.83
314.99
314.85
314.97
315.01
314.98
315.14
315
314.98
315.14
315.14
315.28
315.3
315.14
315.27
315.44
315.29
315.42
315.45
315.43
315.45
315.43
315.45
315.43
315.44
315.57
315.46
315.55
315.62
315.56
315.61
315.56
315.61
315.71
315.62
315.83
315.8
315.68
315.93
315.99
315.94
315.84
316.07
316.01
316.06
316.01
316.2
316.18
316.05
316.02
316.33
316.21
316.16
316.35
316.19
316.47
316.36
316.31
316.64
316.5
316.47
316.5
316.47
316.64
316.63
316.64
316.63
316.64
316.63
316.64
316.63
316.78
316.65
316.63
316.79
316.65
316.76
316.81
316.77
316.95
316.79
316.79
316.93
316.95
316.93
316.95
317.07
317.11
317.07
317.1
317.21
317.26
317.22
317.12
317.34
317.29
317.33
317.31
317.32
317.32
317.31
317.46
317.32
317.59
317.5
317.44
317.49
317.73
317.8
317.74
317.65
318.01
317.84
317.7
317.97
318.02
318.11
318.03
317.96
318.02
317.97
317.87
317.96
318.03
318.11
317.9
317.94
318.04
318.09
318.05
318.09
318.34
318.26
318.19
318.25
318.48
318.43
318.33
318.42
318.62
318.45
318.45
318.6
318.61
318.6
318.6
318.61
318.74
318.78
318.59
318.76
318.89
318.92
318.75
318.91
318.91
318.91
318.9
318.91
318.76
319.04
318.94
319.02
319.09
319.03
319.09
319.04
319.08
319.19
319.09
319.17
319.25
319.18
319.24
319.19
319.24
319.34
319.25
319.32
319.41
319.33
319.4
319.34
319.25
319.32
319.4
319.33
319.54
319.5
319.39
319.49
319.41
319.47
319.56
319.48
319.41
319.47
319.56
319.48
319.41
319.61
319.59
319.6
319.74
319.61
319.58
319.6
319.59
319.74
319.62
319.72
319.78
319.71
319.78
319.72
320.07
319.9
319.91
319.75
319.89
319.91
320.04
319.93
320.02
319.95
320.01
319.96
320
320.11
320.01
319.96
320.28
320.15
319.97
320.14
320.13
320.29
320
320.11
320.15
320.26
320.16
320.11
320.3
320.28
320.29
320.29
320.29
320.29
320.28
320.3
320.42
320.46
320.27
320.44
320.44
320.59
320.31
320.41
320.61
320.58
320.46
320.42
320.6
320.59
320.45
320.43
320.59
320.6
320.59
320.6
320.73
320.77
320.59
320.74
320.75
320.89
320.77
320.73
320.62
320.86
320.8
320.7
320.94
320.87
320.79
320.71
320.93
321.03
320.8
320.85
320.96
321
320.82
320.82
321.12
321
320.97
320.99
320.98
320.98
320.98
320.98
321.13
320.99
321.12
321
321.11
321.16
321.12
321.01
321.1
321.16
321.11
321.15
321.27
321.31
320.99
320.97
321.28
321.3
321.14
320.99
321.26
321.17
321.11
321.16
321.26
321.18
321.1
321.17
321.25
321.18
321.09
321.03
321.08
321.18
321.09
321.03
321.08
321.04
320.93
321.03
321.08
321.04
320.93
321.03
321.08
321.04
320.93
320.88
320.92
321.04
320.79
320.86
320.8
320.85
320.8
320.7
320.93
320.59
320.74
320.76
320.59
320.89
320.63
320.71
320.78
320.72
320.63
320.56
320.76
320.45
320.57
320.62
320.71
320.78
320.57
320.62
320.72
320.49
320.39
320.35
320.23
320.34
320.09
320.17
320.24
320.33
320.11
320.3
320.27
320.3
320.13
320.27
320.44
320.44
320.3
320.27
320.44
320.44
320.3
320.42
320.32
320.4
320.34
320.24
320.48
320.41
320.33
320.39
320.49
320.54
320.51
320.52
320.81
320.55
320.63
320.7
320.79
320.85
320.81
320.84
320.96
320.71
320.93
320.88
320.93
321.03
320.94
321.01
321.1
320.88
321.07
321.19
321.09
321.18
321.24
321.33
321.4
321.34
321.39
321.35
321.39
321.5
321.4
321.48
321.56
321.49
321.4
321.48
321.7
321.51
321.39
321.5
321.54
321.51
321.39
321.64
321.57
321.48
321.41
321.47
321.57
321.48
321.41
321.62
321.73
321.63
321.72
321.64
322
321.84
321.82
321.99
321.84
321.69
321.52
321.52
321.52
321.67
321.39
321.49
321.69
321.52
321.52
321.82
321.7
321.8
321.86
321.81
321.85
321.96
322.01
321.97
322
322.12
322.02
321.96
322.15
321.99
321.98
322
321.98
322
321.83
322.12
322.45
322.32
322.28
322.32
322.28
322.46
322.31
322.44
322.32
322.28
322.32
322.43
322.34
322.41
322.5
322.56
322.66
322.57
322.65
322.72
322.81
322.88
322.82
322.86
322.98
323.02
322.99
323.16
323.17
323.15
323.32
323.31
323.62
323.35
323.58
323.67
323.74
323.83
323.61
323.65
323.76
323.66
323.75
323.67
323.89
323.7
323.86
323.88
324
323.9
323.83
324.05
324
324.05
323.85
323.88
324
324.05
324
324.05
324
324.05
323.85
324.02
324.02
324.03
324.02
324.03
323.87
324.01
323.89
323.84
324.03
324.01
323.88
324
324.05
324
323.9
323.98
324.06
324.14
324.07
323.98
324.21
324.15
324.06
323.99
324.2
324.16
324.05
324.15
324.21
324.15
324.2
324.16
324.35
324.33
324.2
324.17
324.19
324.32
324.21
324.3
324.37
324.46
324.24
324.28
324.39
324.43
324.55
324.45
324.69
324.62
324.53
324.61
324.69
324.77
324.7
324.61
324.69
324.47
324.66
324.8
324.83
324.8
324.82
324.95
325.13
325.13
324.98
325.11
325.29
325.29
324.99
325.25
325.32
325.4
325.19
325.22
325.49
325.26
325.31
325.41
325.48
325.42
325.32
325.41
325.63
325.59
325.47
325.57
325.78
325.9
325.8
325.89
325.96
326.04
325.97
325.88
325.96
325.75
325.78
325.9
325.8
325.89
325.81
325.73
325.8
325.59
325.77
325.91
325.78
325.9
325.8
325.73
325.79
325.59
325.76
325.92
325.93
325.77
325.75
325.78
325.6
325.76
325.77
325.76
325.77
325.62
325.59
325.77
325.76
325.92
325.78
325.9
325.95
325.61
325.75
326.07
326.39
326.57
326.41
326.55
326.73
326.72
326.87
327.04
327.05
327.04
326.9
327.02
327.06
326.87
326.89
326.73
327.02
327.07
326.87
327.04
326.89
326.87
326.74
326.85
326.91
326.71
326.59
326.54
326.58
326.54
326.43
326.52
326.6
326.53
326.44
326.36
326.44
326.22
326.26
326.37
326.28
326.36
326.29
326.2
326.29
326.06
326.26
326.23
326.1
326.21
326.12
326.05
326.11
326.06
325.96
326.04
325.97
325.88
325.96
325.89
325.81
325.87
325.82
325.72
325.81
325.58
325.78
325.9
325.79
325.74
325.78
325.9
325.95
325.9
325.79
325.89
325.8
325.73
325.79
325.74
325.79
325.75
325.63
325.73
325.64
325.57
325.49
325.71
325.67
325.55
325.65
325.56
325.64
325.72
325.65
325.71
325.81
325.72
325.65
325.57
325.49
325.56
325.65
325.57
325.64
325.43
325.61
325.61
325.6
325.76
325.62
325.6
325.61
325.75
325.63
325.74
325.64
325.58
325.63
325.59
325.62
325.59
325.47
325.58
325.63
325.73
325.64
325.57
325.63
325.73
325.65
325.57
325.64
325.58
325.63
325.59
325.62
325.44
325.59
325.77
325.61
325.75
325.63
325.73
325.65
325.57
325.79
325.75
325.78
325.9
325.8
325.74
325.94
325.62
325.74
325.79
325.89
325.96
325.75
325.93
325.92
325.93
325.92
325.93
326.06
326.1
326.07
326.1
326.07
325.95
326.05
326.11
326.06
326.26
326.08
326.08
326.08
326.08
326.23
326.25
326.24
326.4
326.41
326.55
326.58
326.55
326.58
326.55
326.58
326.55
326.73
326.57
326.7
326.89
326.73
326.72
326.88
326.89
327.03
326.91
327.01
327.07
327.02
327.07
327.02
327.21
327.2
327.06
327.18
327.23
327.18
327.22
327.19
327.37
327.36
327.21
327.19
327.21
327.35
327.23
327.18
327.37
327.36
327.22
327.04
327.05
327.19
327.21
327.2
327.21
327.5
327.55
327.8
328.04
327.98
328.18
328.16
328.18
328.31
328.2
328.3
328.36
328.3
328.21
328.29
328.37
328.6
328.41
328.11
328.37
328.75
329.03
329.09
329.19
329.25
329.36
329.56
329.84
330.05
330.18
330.22
330.49
330.41
330.64
330.74
330.8
331.06
331.3
331.55
331.64
331.72
331.8
331.88
332.28
332.56
332.62
332.87
332.96
333.04
332.98
332.88
333.12
332.91
332.62
332.72
332.63
332.71
332.64
332.39
332.46
332.4
332.29
332.23
332.28
332.24
332.27
332.25
332.27
332.26
332.11
332.09
331.94
332.07
331.96
331.9
332.1
332.09
331.79
331.89
331.96
331.9
331.8
331.73
331.94
331.92
331.78
331.75
331.77
331.91
331.79
331.74
331.94
331.92
331.78
331.9
331.95
332.07
331.96
331.9
332.11
332.08
332.1
332.08
332.1
332.24
332.27
332.09
332.25
332.43
332.27
332.41
332.44
332.56
332.46
332.39
332.61
332.58
332.45
332.4
332.6
332.74
332.62
332.57
332.92
332.77
332.74
332.77
332.9
333.1
332.92
332.92
333.08
333.1
333.08
333.1
333.08
333.26
333.1
333.23
333.43
333.26
333.25
333.26
333.41
333.59
333.43
333.41
333.43
333.57
333.45
333.55
333.78
333.73
333.78
333.74
333.78
333.89
333.79
333.72
333.94
333.75
333.76
333.91
334.09
334.09
333.94
333.91
334.09
334.09
333.93
333.91
334.24
334.12
334.07
334.27
334.25
334.27
334.09
334.24
334.43
334.43
334.27
334.4
334.45
334.56
334.47
334.55
334.64
334.55
334.63
334.56
334.62
334.57
334.62
334.73
334.79
334.89
334.81
334.72
334.96
334.91
334.95
334.91
335.1
335.25
335.12
335.24
335.14
335.22
335.31
335.23
335.3
335.4
335.31
335.38
335.64
335.41
335.45
335.58
335.78
335.92
335.64
335.73
335.81
335.74
335.8
335.9
335.82
335.89
335.83
335.72
335.82
335.89
335.83
335.72
335.82
335.89
335.99
336.06
336.15
336.23
336.01
336.2
336.35
336.53
336.7
336.71
336.86
337.05
337.05
337.04
337.37
337.24
337.19
337.08
337.18
337.25
337.19
337.24
337.35
337.1
337.16
337.27
337.17
337.26
337.18
337.25
337.34
337.43
337.2
337.24
337.52
337.43
337.35
337.27
337.33
337.44
337.34
337.43
337.51
337.44
337.34
337.43
337.51
337.44
337.5
337.61
337.51
337.6
337.68
337.61
337.51
337.76
337.7
337.75
337.87
337.77
337.86
337.78
337.68
337.93
337.88
337.92
338.05
338.09
338.05
338.09
338.06
338.08
338.23
338.26
338.39
338.43
338.4
338.43
338.25
338.4
338.43
338.56
338.46
338.53
338.8
338.56
338.61
338.72
338.8
338.72
338.95
338.91
338.95
338.91
339.11
339.1
338.95
339.07
339.29
339.1
339.27
339.12
339.24
339.15
339.23
339.32
339.39
339.18
339.35
339.38
339.35
339.22
339.31
339.57
339.5
339.58
339.49
339.74
339.68
339.74
339.67
339.91
339.86
340.07
340.04
340.23
340.38
340.42
340.38
340.75
340.75
340.91
340.93
341.08
341.28
341.27
341.28
341.43
341.46
341.6
341.64
341.77
341.83
341.77
341.82
341.78
341.98
341.8
341.79
341.8
341.96
341.99
341.8
341.8
341.96
341.99
341.8
341.96
341.99
342.13
341.85
341.92
342.03
341.92
341.86
341.91
342.2
341.94
342.01
341.94
342
342.11
342.02
342.09
342.2
342.27
342.22
342.09
342.37
342.12
342.18
342.29
342.36
342.3
342.35
342.3
342.35
342.31
342.18
342.29
342.19
342.27
342.37
342.28
342.36
342.13
342.33
342.48
342.51
342.65
342.53
342.47
342.69
342.67
342.52
342.65
342.7
342.82
342.72
342.81
342.9
342.82
342.89
342.83
342.88
343
342.89
343.15
343.26
343.16
343.25
343.17
343.4
343.04
343.18
343.4
343.37
343.57
343.22
343.52
343.59
343.37
343.4
343.54
343.58
343.38
343.55
343.57
343.71
343.77
343.54
343.74
343.73
343.91
343.75
343.73
343.75
343.89
343.77
343.71
343.92
343.91
343.76
343.89
343.94
343.89
343.93
343.9
344.09
344.09
343.93
343.9
344.09
344.1
343.92
344.24
344.13
344.06
343.96
344.04
344.31
344.24
344.13
344.22
344.48
344.25
344.28
344.26
344.45
344.28
344.25
344.28
344.26
344.45
344.45
344.45
344.61
344.31
344.4
344.66
344.59
344.66
344.6
344.65
344.6
344.65
344.6
344.64
344.77
344.83
344.78
344.83
344.78
344.99
344.98
344.98
344.98
344.98
344.98
345.15
345.01
345.12
345.03
345.1
345.22
345.11
345.21
345.11
345.2
345.12
345.2
345.29
345.38
345.13
345.19
345.3
345.37
345.31
345.37
345.48
345.55
345.32
345.52
345.52
345.69
345.71
345.52
345.68
345.71
345.86
345.73
345.84
345.75
345.82
345.93
345.83
345.75
345.98
345.96
345.97
346.13
345.99
346.12
346
346.27
346.2
346.1
346.19
346.28
346.2
346.27
346.21
346.09
346.2
346.27
346.21
346.43
346.41
346.25
346.23
346.41
346.42
346.41
346.26
346.55
346.65
346.38
346.62
346.74
346.64
346.55
346.81
346.74
346.81
346.58
346.78
346.77
346.78
346.77
346.95
346.79
346.93
346.81
346.91
347
346.75
346.97
346.95
346.96
346.95
346.96
346.95
346.96
346.79
346.77
346.95
346.79
346.93
346.81
346.74
346.98
346.94
346.8
346.75
346.8
347.09
347.01
346.91
347
347.08
347.02
347.07
347.2
347.25
347.22
347.07
347.54
347.46
347.36
347.28
347.52
347.48
347.52
347.49
347.68
347.68
347.68
347.69
347.84
347.71
347.82
347.9
347.99
347.92
347.81
348.08
348.01
348.08
348.01
348.08
348.01
348.07
348.19
348.26
348.36
348.28
348.35
348.63
348.55
348.63
348.39
348.6
348.59
348.42
348.56
348.78
348.59
348.75
348.62
348.73
348.81
348.56
348.78
348.76
348.78
348.76
348.61
348.57
348.61
348.4
348.59
348.42
348.39
348.25
348.37
348.44
348.38
348.43
348.22
348.23
348.39
348.42
348.39
348.42
348.23
348.39
348.25
348.2
348.42
348.23
348.4
348.42
348.4
348.42
348.4
348.41
348.4
348.58
348.6
348.41
348.74
348.8
348.75
348.62
348.73
348.98
348.76
348.78
348.76
348.95
348.96
348.78
348.94
349.14
348.97
348.94
349.14
348.97
349.11
348.99
348.92
349.15
349.12
348.98
349.1
349.17
349.28
349.02
349.07
349.2
349.08
349.19
349.09
349.18
349.27
349.2
349.25
349.21
349.24
349.22
349.23
349.4
349.42
349.58
349.61
349.76
349.62
349.92
349.83
349.9
349.84
349.89
349.85
349.88
350.03
349.9
350.02
350.09
350.2
350.1
350.01
350.26
350.22
350.08
350.21
350.27
350.39
350.28
350.37
350.64
350.41
350.43
350.42
350.59
350.62
350.42
350.6
350.78
350.63
350.58
350.8
350.78
350.81
350.6
350.78
350.97
350.99
350.79
350.79
350.96
351.16
350.81
350.94
350.83
350.93
351.02
351.11
351.21
351.12
351.03
351.1
351.21
351.28
351.06
351.07
351.24
351.26
351.25
351.25
351.26
351.24
351.27
351.24
351.44
351.26
351.42
351.28
351.41
351.46
351.42
351.45
351.6
351.64
351.61
351.64
351.79
351.65
351.6
351.64
351.78
351.66
351.59
351.65
351.94
351.87
351.76
351.68
351.92
351.89
351.73
351.88
351.92
351.89
351.91
351.9
352.08
351.93
351.87
351.93
351.87
352.11
351.89
351.91
352.06
352.29
351.91
352.07
352.11
352.25
352.12
352.23
352.31
352.24
352.3
352.25
352.47
352.45
352.29
352.43
352.48
352.44
352.48
352.44
352.47
352.62
352.32
352.41
352.68
352.61
352.5
352.42
352.49
352.6
352.51
352.59
352.7
352.77
352.71
352.59
352.7
352.77
352.72
352.76
352.9
352.77
352.71
352.76
352.73
352.75
352.91
352.77
353.07
352.81
352.86
352.99
352.87
352.97
352.89
352.96
353.07
352.97
352.89
352.96
352.9
353.12
353.11
353.12
353.29
352.96
353.07
353.15
353.08
353.14
353.09
353.13
353.27
353.15
353.26
353.34
353.27
353.33
353.28
353.32
353.28
353.31
353.47
353.33
353.45
353.35
353.43
353.54
353.27
353.5
353.48
353.5
353.65
353.52
353.63
353.54
353.62
353.55
353.6
353.74
353.79
353.75
353.61
353.74
353.62
353.73
353.63
353.71
353.82
353.73
353.8
353.74
353.96
353.78
353.76
353.96
353.95
353.97
353.77
353.95
353.96
353.95
353.96
354.13
354.15
354.14
353.97
354.12
354.17
353.95
354.14
354.33
354.33
354.34
354.16
354.31
354.35
354.32
354.35
354.15
354.32
354.35
354.32
354.35
354.49
354.37
354.3
354.37
354.48
354.56
354.31
354.53
354.51
354.53
354.34
354.33
354.52
354.53
354.34
354.32
354.52
354.7
354.37
354.3
354.37
354.48
354.39
354.28
354.38
354.29
354.38
354.46
354.22
354.42
354.44
354.23
354.25
354.4
354.46
354.22
354.44
354.23
354.42
354.25
354.58
354.47
354.4
354.28
354.21
354.27
354.22
354.26
354.4
354.27
354.21
354.26
354.22
354.25
354.23
354.25
354.41
354.44
354.24
354.06
354.4
354.11
354.18
354.3
354.36
354.31
354.18
354.3
354.36
354.14
354.32
354.35
354.32
354.35
354.13
354.34
354.33
354.17
354.3
354.37
354.29
354.55
354.32
354.35
354.31
354.36
354.31
354.36
354.48
354.38
354.28
354.38
354.29
354.55
354.32
354.35
354.49
354.55
354.32
354.52
354.52
354.52
354.34
354.5
354.54
354.68
354.56
354.48
354.73
354.51
354.53
354.69
354.73
354.69
354.55
354.67
354.75
354.68
354.74
354.86
354.76
354.66
354.76
354.84
354.95
354.85
354.94
354.86
354.94
355.04
354.96
354.85
355.12
355.06
355.12
354.89
355.09
355.27
355.11
355.24
355.13
355.22
355.15
355.21
355.34
355.4
355.36
355.38
355.54
355.4
355.35
355.39
355.72
355.6
355.53
355.59
355.72
355.78
355.73
355.59
355.89
355.81
355.88
355.82
355.87
356.01
355.88
355.99
356.08
356
356.06
355.84
356.21
356.25
356.03
356.23
356.22
356.41
356.24
356.21
356.41
356.25
356.38
356.45
356.38
356.63
356.41
356.6
356.61
356.43
356.58
356.81
356.61
356.79
356.63
356.94
356.85
356.57
356.82
356.96
356.84
356.94
357.03
356.95
357.02
357.14
357.04
356.94
357.21
357.34
357.23
357.32
357.42
357.33
357.23
357.31
357.43
357.5
357.62
357.52
357.61
357.7
357.62
357.69
357.81
357.53
357.78
357.74
357.77
357.93
357.79
357.91
357.98
358.1
358
358.26
358.22
358.25
358.23
358.24
358.42
358.26
358.4
358.45
358.41
358.44
358.6
358.46
358.76
358.68
358.57
358.67
358.94
358.89
358.93
358.9
358.92
359.09
359.12
359.1
359.11
359.28
359.31
359.29
359.48
359.5
359.48
359.51
359.47
359.87
359.7
359.49
359.67
359.88
359.7
359.68
359.87
359.71
359.84
359.92
359.85
359.91
359.85
359.91
360.03
359.94
360.01
360.14
360.02
360.13
360.03
360.3
360.06
360.27
360.27
360.27
360.45
360.47
360.27
360.45
360.48
360.45
360.48
360.45
360.48
360.63
360.51
360.61
360.89
360.64
360.68
360.82
360.89
360.64
360.86
361.03
360.88
361.01
361.09
361.01
361.27
361.23
361.08
361.2
361.29
361.39
361.31
361.19
361.48
361.41
361.47
361.41
361.47
361.6
361.49
361.58
361.69
361.59
361.68
361.78
361.88
361.79
361.69
361.77
361.89
361.78
361.88
361.8
362.05
361.65
361.81
362.04
362.02
362.05
361.83
362.02
362.04
361.84
362.01
362.24
362.22
362.24
362.21
362.42
362.42
362.24
362.39
362.45
362.39
362.45
362.4
362.63
362.42
362.61
362.45
362.59
362.65
362.78
362.67
362.57
362.66
362.77
362.68
362.57
362.85
362.79
362.66
362.58
362.65
362.78
362.86
362.6
363
363.03
362.82
362.82
363
363.03
363
363.03
363
363.22
363.21
363.22
363.21
363.4
363.23
363.38
363.44
363.39
363.43
363.58
363.64
363.58
363.63
363.59
363.63
363.59
363.62
363.78
363.83
363.97
363.85
363.77
364.03
363.99
363.84
363.97
364.04
363.97
364.04
363.98
364.03
364.17
364.05
364.15
364.25
364.16
364.25
364.36
364.45
364.18
364.23
364.37
364.43
364.38
364.24
364.36
364.44
364.37
364.44
364.38
364.61
364.6
364.61
364.6
364.6
364.79
364.63
364.58
364.99
365.02
364.8
364.81
364.99
365.02
364.8
365
365.01
365
365.01
365
365
365
365.19
365.03
364.98
365.22
365.19
365.22
365.19
365.4
365.22
365.19
365.22
365.19
365.4
365.22
365.37
365.43
365.56
365.46
365.35
365.64
365.58
365.63
365.58
365.63
365.58
365.62
365.59
365.8
365.62
365.59
365.62
365.4
365.78
365.45
365.54
365.85
365.77
365.84
365.77
365.83
365.97
365.85
365.76
365.84
365.77
365.83
365.97
366.04
365.98
365.84
365.96
366.05
366.15
365.88
365.92
366.27
366.15
366.07
366.14
366.08
365.94
366.06
365.96
366.05
366.16
366.25
366.36
366.26
366.16
366.25
366.36
366.45
366.56
366.46
366.36
366.45
366.56
366.46
366.55
366.66
366.56
366.65
366.58
366.64
366.78
366.65
366.57
366.64
366.96
366.87
366.76
366.85
366.96
367.06
366.98
367.23
367.2
367.03
367.19
367.24
367.38
367.26
367.18
367.43
367.41
367.24
367.39
367.44
367.59
367.46
367.38
367.64
367.42
367.41
367.61
367.44
367.59
367.46
367.57
367.66
367.77
367.68
367.76
367.69
367.93
367.92
367.92
367.93
367.73
367.91
367.93
367.92
367.93
368.12
368.13
368.31
368.15
368.11
368.14
368.12
368.14
368.31
368.15
368.48
368.39
368.28
368.38
368.29
368.36
368.3
368.35
368.5
368.56
368.51
368.55
368.71
368.57
368.5
368.56
368.51
368.55
368.52
368.55
368.9
368.79
368.7
368.59
368.87
368.82
368.86
368.83
368.84
369.03
368.86
368.82
369.04
369.05
368.84
369.03
368.86
369.2
369.1
369
369.27
369.23
369.26
369.05
369.42
369.49
369.23
369.46
369.44
369.47
369.44
369.47
369.44
369.66
369.46
369.64
369.68
369.64
369.48
369.62
369.69
369.63
369.69
369.63
369.87
369.86
369.68
369.83
369.89
369.84
369.89
369.84
369.88
370.04
369.9
370.02
370.11
370.03
370.11
370.04
370.1
370.23
370.12
370.21
370.14
370.2
370.35
370.21
370.53
370.44
370.33
370.42
370.53
370.62
370.36
370.39
370.56
370.4
370.55
370.61
370.56
370.6
370.77
370.61
370.75
370.82
370.76
370.81
370.97
370.64
370.92
370.87
370.72
370.85
370.74
371.03
371.16
371.04
370.95
371.03
370.97
371.21
371.2
371.01
371.37
371.25
371.16
371.24
371.17
371.23
371.37
371.25
371.55
371.49
371.34
371.28
371.33
371.68
371.56
371.47
371.55
371.68
371.75
371.69
371.74
371.9
371.76
371.88
371.96
371.9
371.76
372.07
371.99
372.06
372.2
372.08
372.18
372.09
372.17
372.11
371.96
372.29
372.2
372.27
372.4
372.29
372.19
372.28
372.59
372.51
372.39
372.5
372.59
372.51
372.58
372.53
372.76
372.76
372.37
372.71
372.61
372.69
372.82
372.71
373
372.94
372.79
372.73
372.78
372.94
372.99
372.94
373.18
373.18
372.98
373.15
373.2
373.35
373.02
373.11
373.23
373.32
373.25
373.11
373.43
373.35
373.22
373.33
373.63
373.37
373.4
373.57
373.42
373.55
373.44
373.53
373.46
373.71
373.69
373.7
373.9
373.53
373.85
373.96
373.67
373.91
373.91
373.91
374.11
374.12
374.12
373.92
374.29
374.16
374.08
374.15
374.09
374.34
374.33
374.33
374.53
374.35
374.31
374.34
374.51
374.56
374.52
374.36
374.7
374.8
374.51
374.56
374.71
374.59
374.69
374.8
374.9
374.82
374.88
374.83
374.87
375.04
374.89
374.83
374.87
375.04
375.09
375.05
375.27
375.29
375.07
375.27
375.28
375.28
375.27
375.28
375.46
375.51
375.26
375.29
375.46
375.52
375.26
375.49
375.48
375.69
375.51
375.67
375.53
375.65
375.75
375.66
375.74
375.67
375.73
375.87
375.95
376.08
375.77
375.63
375.76
375.65
375.94
375.88
375.94
376.09
375.96
376.07
376.18
376.08
376.17
376.09
376.35
376.12
376.32
376.55
376.35
376.52
376.37
376.5
376.59
376.51
376.58
376.52
376.77
376.75
376.57
376.73
376.59
376.71
376.81
376.72
377
376.75
376.77
376.96
376.99
376.96
376.79
376.94
377.01
376.94
377
376.95
376.99
377.16
377.02
377.13
377.24
377.34
377.25
377.13
377.44
377.37
377.23
377.35
377.45
377.56
377.47
377.34
377.65
377.58
377.45
377.56
377.66
377.77
377.68
377.56
377.67
377.77
377.68
377.75
377.89
377.97
377.91
377.76
378.09
378.2
378.11
377.99
378.29
378.23
378.08
378.01
378.27
378.45
378.29
378.23
378.28
378.44
378.5
378.45
378.49
378.66
378.51
378.65
378.72
378.66
378.71
378.67
378.7
378.88
378.72
378.86
379.14
378.9
378.9
378.91
379.1
379.34
378.92
379.09
378.94
379.07
379.16
379.08
379.15
379.29
379.17
379.27
379.39
379.48
379.41
379.27
379.59
379.51
379.38
379.49
379.6
379.51
379.39
379.49
379.8
379.53
379.56
379.74
379.59
379.72
379.6
379.7
379.82
379.72
379.81
379.93
380.03
379.94
379.82
379.92
380.03
379.94
380.02
379.95
380.21
379.99
379.97
380.19
380.2
380.4
380.02
380.15
380.25
380.16
380.23
380.17
380.23
380.38
380.25
380.36
380.47
380.37
380.46
380.38
380.45
380.59
380.47
380.57
380.69
380.59
380.47
380.57
380.69
380.58
380.47
380.36
380.46
380.58
380.68
380.59
380.87
380.83
380.66
380.81
380.88
380.82
380.87
381.03
380.89
381.02
380.91
380.8
380.9
381.01
381.12
381.23
381.34
381.24
381.33
381.25
381.32
381.26
381.31
381.47
381.33
381.45
381.35
381.23
381.33
381.45
381.35
381.23
381.33
381.24
381.53
381.49
381.52
381.7
381.54
381.48
381.53
381.69
381.55
381.67
381.57
381.65
381.58
381.44
381.57
381.65
381.58
381.64
381.59
381.43
381.57
381.65
381.79
381.46
381.54
381.47
381.53
381.69
381.55
381.67
381.56
381.45
381.75
381.7
381.74
381.71
381.53
381.48
381.52
381.7
381.54
381.68
381.76
381.49
381.52
381.7
381.54
381.47
381.53
381.28
381.49
381.52
381.49
381.32
381.46
381.75
381.49
381.52
381.69
381.76
381.69
381.75
381.69
381.75
381.49
381.72
381.52
381.69
381.75
381.7
381.95
381.94
381.95
381.94
381.95
382.14
381.97
381.91
382.17
381.95
382.14
382.18
382.14
382.38
382.18
381.94
381.74
381.51
381.71
381.74
381.71
381.73
381.71
381.94
381.95
381.94
381.75
381.91
381.98
381.91
381.97
381.91
382.17
382.15
381.97
381.92
382.17
381.95
382.14
381.98
382.11
382.2
381.92
381.96
382.12
382.19
381.93
381.95
382.13
382.18
381.94
381.95
382.14
382.18
382.15
381.97
381.92
382.17
382.15
381.96
382.13
382.19
381.93
381.95
381.93
381.95
381.94
381.95
382.35
382.61
382.79
382.64
382.77
382.87
382.78
382.86
382.79
382.85
382.59
382.81
382.83
382.61
382.8
382.84
382.8
382.83
383.01
383.06
383.02
383.06
382.82
383.02
383.06
383.02
383.06
382.82
382.82
382.82
383.03
382.84
383
383.07
383.21
383.1
382.99
383.09
383.41
383.34
383.19
383.12
383.37
383.37
383.16
383.56
383.41
383.34
383.39
383.56
383.41
383.54
383.63
383.76
383.65
383.75
383.66
383.94
383.7
383.7
383.71
383.9
383.95
383.69
383.71
383.68
383.92
383.71
383.9
383.94
384.11
383.96
383.88
383.95
384.1
383.97
383.87
384.17
384.12
383.95
384.31
384.21
384.08
384.19
384.3
384.21
384.29
384.23
384.27
384.45
384.29
384.43
384.31
384.41
384.53
384.43
384.31
384.83
384.59
384.38
384.56
384.4
384.54
384.62
384.55
384.61
384.77
384.84
384.78
384.83
385
384.85
384.77
385.05
385.02
385.04
385.03
385.03
385.24
385.06
385.01
385.26
385.25
385.25
385.26
385.25
385.47
385.27
385.44
385.3
385.42
385.52
385.43
385.72
385.68
385.51
385.66
385.53
385.63
385.76
385.65
385.95
385.9
385.74
385.87
385.76
386.06
386.01
385.84
386.2
386.09
386.19
386.1
385.97
386.29
386.23
386.07
386.42
386.32
386.2
386.3
386.64
386.56
386.42
386.33
386.4
386.55
386.63
386.77
386.86
386.78
386.64
386.76
386.87
386.77
386.64
386.97
387.11
386.98
387.09
387
387.08
387.01
387.07
387.23
387.3
387.24
387.08
387.01
387.07
387.23
387.09
387.42
387.34
387.2
387.33
387.42
387.55
387.44
387.33
387.42
387.55
387.65
387.78
387.87
388.21
388.34
388.44
388.78
388.91
389.22
389.38
389.45
389.81
389.71
389.59
389.91
390.06
390.14
390.07
390.34
390.53
390.36
390.51
390.59
390.95
390.64
390.69
391.08
390.95
391.07
390.97
391.05
391.41
391.32
391.18
391.3
391.41
391.32
391.18
391.3
391.41
391.53
391.42
391.52
391.65
391.54
391.63
391.76
391.86
391.78
391.64
391.76
392.08
391.81
391.82
391.82
391.82
392.04
391.84
392.02
392.08
392.03
392.07
392.04
392.27
392.5
392.08
392.23
392.11
392.43
392.37
392.41
392.81
392.68
392.58
392.66
392.81
392.68
392.58
392.66
392.81
392.89
392.83
392.88
393.06
393.11
393.07
393.1
393.51
393.16
393.25
393.17
393.24
393.4
393.26
393.38
393.49
393.39
393.47
393.41
393.46
393.63
393.48
393.61
393.72
393.63
393.7
393.64
393.69
393.65
393.68
393.66
393.68
393.67
393.67
393.67
393.88
393.92
393.66
393.89
393.91
393.68
393.65
393.9
393.9
393.91
393.68
393.88
393.92
393.88
393.7
393.86
393.94
393.87
393.72
393.84
393.96
393.64
393.91
393.89
393.69
394.08
393.97
393.84
394.17
394.1
393.95
394.08
393.97
394.06
393.99
394.04
394.22
394.06
394.2
394.07
393.97
394.06
394.21
394.29
394.22
393.84
394.17
394.32
394.19
394.3
394.21
394.28
394.44
394.3
394.21
394.29
394.44
394.09
394.39
394.35
394.38
394.58
394.4
394.34
394.61
394.6
394.38
394.36
394.59
394.61
394.15
394.34
394.39
394.35
394.38
394.36
394.37
394.37
394.37
394.37
394.36
394.59
394.39
394.57
394.63
394.58
394.4
394.55
394.64
394.35
394.38
394.57
394.41
394.55
394.43
394.53
394.67
394.54
394.65
394.56
394.64
394.78
394.66
394.55
394.87
394.81
394.64
394.79
394.88
394.58
394.62
394.81
394.86
394.81
394.64
394.79
394.88
394.8
394.65
394.78
394.89
394.79
394.87
394.8
394.86
394.81
394.64
394.79
394.88
394.8
394.65
394.78
394.89
394.57
394.63
394.8
394.87
394.81
394.64
394.79
394.88
394.8
394.87
394.81
394.86
394.82
394.85
394.82
394.84
394.61
394.59
394.61
394.59
394.62
394.37
394.8
394.65
394.56
394.42
394.32
394.63
394.58
394.4
394.34
394.39
394.56
394.42
394.32
394.63
394.58
394.4
394.56
394.64
394.57
394.63
394.79
394.87
395.02
394.9
394.78
394.67
394.76
394.68
394.74
394.7
394.73
394.71
394.5
394.91
394.55
394.64
394.57
394.85
394.83
394.62
394.58
394.83
394.62
394.58
394.84
394.61
394.6
394.6
394.6
394.6
394.61
394.38
394.58
394.62
394.59
394.4
394.56
394.64
394.35
394.6
394.61
394.59
394.83
394.62
394.8
394.87
394.59
394.61
394.6
394.61
394.6
394.6
394.6
394.6
395.04
394.66
394.77
394.68
394.75
394.92
394.76
394.68
394.74
394.92
394.98
395.15
394.78
395.1
395.26
395.34
395.27
395.55
395.97
396.26
396.45
396.51
396.68
396.97
397.16
397.21
397.17
397.43
397.65
397.67
397.65
397.67
397.66
397.66
397.66
397.66
397.89
397.47
397.39
397.24
397.15
397.45
397.41
397.22
397.16
397.21
397.17
396.76
396.89
396.79
396.65
396.77
396.66
396.76
396.68
396.75
396.69
396.52
396.44
396.51
396.23
396.25
396.24
396.47
396.49
396.24
396.25
396.24
396.25
396.46
396.28
396.42
396.53
396.21
396.5
396.46
396.5
396.46
396.5
396.46
396.49
396.47
396.49
396.47
396.27
396.44
396.52
396.66
396.54
396.42
396.75
396.68
396.75
396.47
396.71
396.72
396.93
396.75
396.9
397
397.12
397.03
397.1
397.27
397.33
397.29
397.31
397.75
397.58
397.96
398.06
398.2
398.3
398.45
398.53
398.69
398.55
398.67
398.56
399.11
398.86
399.07
399.34
399.1
399.08
399.09
399.09
399.09
399.09
398.86
398.84
398.86
398.85
398.63
398.6
398.4
398.57
398.43
398.33
398.42
398.12
398.15
398.12
398.15
398.35
398.17
398.1
398.16
398.33
398.19
398.31
398.21
398.07
398.19
398.09
398.4
398.13
398.14
398.14
398.13
398.14
398.13
397.92
398.09
398.18
397.87
397.92
398.1
398.18
397.88
398.14
397.91
397.89
397.9
398.12
397.93
398.09
397.96
397.84
397.95
397.85
397.94
397.86
397.93
397.65
397.67
397.88
397.7
397.63
397.69
397.64
397.91
397.67
397.87
397.93
397.87
397.93
397.65
397.89
397.9
397.9
397.9
397.9
397.9
397.9
397.9
397.9
397.9
397.9
398.12
397.93
398.09
397.96
398.06
398.21
398.07
398.2
398.3
398.22
398.06
398.42
398.33
398.19
398.09
398.4
398.35
398.17
398.1
398.16
398.11
397.94
397.87
397.93
397.88
397.92
397.88
397.91
397.89
397.68
397.87
397.71
397.84
397.73
397.82
397.97
397.84
397.95
397.85
398.16
397.9
397.9
398.13
398.14
398.13
397.92
398.11
398.16
398.12
398.15
398.12
398.37
398.39
398.14
398.36
398.39
398.59
398.41
398.56
398.66
398.57
398.65
398.58
398.86
398.63
398.82
398.88
398.82
398.88
398.82
399.1
399.08
399.11
399.07
399.11
399.07
399.55
399.36
399.52
399.61
399.53
399.6
399.54
399.82
400.02
399.85
400
400.09
400.01
400.09
400.24
400.33
400.02
399.85
399.77
400.06
400.04
400.06
400.04
400.05
400.27
400.08
400.24
400.33
400.47
400.36
400.23
400.57
400.49
400.34
400.47
400.58
400.48
400.35
400.46
400.37
400.44
400.61
400.45
400.82
400.95
400.84
400.71
400.83
400.94
401.07
400.96
401.28
401.23
401.05
400.98
401.04
400.99
400.8
400.97
401.05
401.2
401.29
401.22
401.28
401.23
400.82
400.95
400.84
400.93
400.86
400.69
400.84
400.93
400.63
400.66
400.87
400.68
400.62
400.67
400.86
400.47
400.35
400.45
400.59
400.47
400.35
400.23
400.56
400.06
400.03
400.07
400.25
400.33
399.8
399.82
400.02
400.08
399.79
399.6
399.75
399.86
399.53
399.6
399.53
399.6
399.31
399.13
