631.12
630.95
631.12
630.4
631.03
631.04
631.03
630.48
630.96
631.1
630.97
631.09
630.98
631.08
631
631.07
631.01
631.06
631.01
631.05
631.02
631.6
631.1
630.97
631.65
631.61
631.65
631.06
631.57
631.69
631.02
631.6
631.66
631.6
631.66
631.05
631.58
631.69
631.58
631.68
631.59
632.23
631.68
631.59
631.67
631.6
632.22
631.68
631.58
632.23
632.23
631.67
632.15
631.75
632.08
631.81
632.02
632.42
632.05
631.84
632
631.89
631.96
631.93
631.92
632.52
631.97
632.47
632.02
632.42
632.06
632.38
632.1
632.35
632.13
632.32
632.16
632.29
632.19
632.27
632.21
632.24
632.23
632.23
632.24
632.21
632.26
632.2
632.27
632.75
632.91
632.19
632.84
632.82
632.85
632.25
632.78
632.88
632.79
632.86
632.81
632.29
632.74
632.91
632.77
632.89
632.23
632.79
632.88
632.79
633.44
632.86
632.81
633.41
632.9
632.77
633.45
632.85
633.38
632.92
632.75
633.47
633.4
633.46
632.85
633.37
633.49
632.81
633.41
633.45
633.41
632.89
633.34
633.52
633.35
633.51
633.37
633.49
633.38
633.48
633.95
633.55
633.88
633.61
633.27
633.59
633.85
633.64
633.8
634.25
633.84
633.65
633.23
634.18
633.91
633.59
633.86
633.64
633.81
634.24
633.85
634.2
633.89
634.16
633.92
634.13
633.95
634.11
633.98
634.08
634
634.06
634.02
634.04
634.6
634.11
634.53
634.17
634.48
634.22
633.87
634.74
634.55
634.71
634.58
634.12
634.52
634.74
634.55
634.71
634.58
634.68
634.6
634.66
634.62
634.64
634.64
634.63
634.65
634.62
634.67
634.61
635.24
634.68
634.61
634.66
634.62
634.65
634.63
634.64
634.64
634.63
635.22
634.7
635.15
634.77
634.52
635.3
634.63
635.21
635.28
635.21
635.28
634.64
635.2
635.28
634.65
635.19
635.3
635.19
635.29
635.2
635.29
635.2
635.28
635.2
635.28
635.21
635.27
635.21
635.27
635.22
635.83
635.31
635.18
635.3
635.19
635.29
635.2
635.29
635.2
635.28
635.77
635.92
635.78
635.35
635.14
635.9
635.8
635.33
635.73
635.96
635.74
635.95
635.76
635.93
635.77
635.92
635.79
635.91
635.8
635.33
635.72
635.96
635.18
635.86
635.84
635.86
635.84
635.85
636.41
635.93
635.78
635.91
635.79
635.9
636.37
635.97
636.31
636.59
636.33
636
635.71
636.54
636.39
635.95
635.76
636.49
636.43
635.91
635.8
636.46
636.46
636.45
636.47
636.44
635.91
636.35
636.56
636.36
636.55
636.36
636.55
636.37
636.54
636.37
636.53
636.38
637.09
636.47
636.44
637.03
637.1
636.47
636.45
636.46
636.45
636.46
636.45
637.02
636.54
636.95
636.61
636.88
637.24
636.91
637.21
636.93
637.19
636.95
637.17
636.97
637.15
636.99
637.13
637.01
637.11
637.02
637.1
637.6
637.17
637.54
637.23
637.49
637.84
636.95
637.16
637.55
637.21
637.5
637.26
637.45
637.87
637.5
637.83
637.54
637.79
638.14
637.84
637.53
637.8
637.57
637.76
637.6
637.73
637.63
637.7
637.66
637.68
637.68
637.66
638.26
638.3
638.28
637.71
638.22
638.34
638.24
637.75
637.61
637.72
638.21
637.78
637.58
637.75
638.18
637.81
638.12
638.43
638.16
638.39
638.19
638.36
638.22
638.34
638.24
638.31
638.83
638.38
638.2
638.35
638.23
638.33
638.25
638.31
638.84
638.38
638.2
638.92
638.88
638.91
638.89
638.9
639.47
638.4
638.75
639.03
639.35
639.08
638.73
639.05
639.33
639.1
638.71
639.06
638.75
639.03
638.78
639
639.38
639.06
639.32
639.1
639.28
639.15
639.24
639.75
639.29
639.7
639.34
639.66
639.95
639.14
639.25
639.74
639.3
639.69
639.35
639.65
639.39
639.61
639.42
639.58
640.03
639.63
639.4
640.17
640.09
639.57
640.03
639.63
639.98
639.68
639.93
640.29
639.41
640.17
640.09
640.14
640.12
639.55
640.05
639.61
640
640.23
640.03
640.2
640.06
640.17
640.08
640.15
640.68
640.21
640.05
640.76
640.73
640.17
640.09
640.72
640.76
640.14
640.69
640.78
640.71
640.19
640.07
640.74
640.74
640.73
640.75
640.15
640.68
640.79
640.69
640.78
640.71
640.76
641.29
640.84
641.22
640.9
640.59
641.45
641.27
640.85
640.63
640.83
641.23
640.89
640.6
640.86
641.2
640.92
640.57
641.46
641.26
640.86
641.2
641.49
641.23
640.89
640.6
641.43
641.29
640.84
641.22
641.47
641.25
640.87
641.2
641.5
641.8
641.55
641.18
641.51
641.79
641.56
641.17
641.51
641.79
641.56
641.17
642.09
641.87
641.49
641.82
642.11
641.85
641.5
641.23
641.46
641.84
642.09
641.88
641.48
641.83
642.1
641.86
642.06
641.9
642.03
641.35
641.92
642.6
641.42
641.88
641.48
641.82
642.1
641.86
642.07
641.89
642.04
641.92
641.44
641.86
642.07
641.89
642.61
642
641.94
642.59
642.01
642.52
642.07
642.46
642.7
641.92
642.02
641.94
642.57
642.61
641.99
642.54
642.06
642.47
642.12
641.84
642.09
642.45
642.15
642.39
642.19
642.35
642.24
642.31
642.85
642.36
642.22
642.32
642.83
642.38
642.21
641.76
642.16
642.38
642.2
642.35
642.81
642.4
642.18
641.79
642.71
642.49
642.1
641.86
642.06
642.48
642.11
642.43
642.16
641.81
642.11
642.43
642.15
642.39
642.19
641.78
642.14
642.4
642.18
642.37
642.79
642.42
642.74
642.47
642.69
642.51
642.08
642.46
642.7
642.5
642.09
642.45
642.71
641.92
642.01
642.52
642.64
642.55
642.04
641.92
642.59
642.61
641.99
642.54
642.05
641.9
642.03
641.93
642.58
642.61
641.99
642.54
642.06
642.47
642.12
642.42
642.74
641.88
642.63
641.99
642.53
642.08
641.86
642.65
641.95
642.57
642.03
641.92
642.59
642.6
642.01
641.94
642
642.53
642.07
641.88
642.63
641.98
641.96
641.99
641.96
642.56
642.04
641.91
642.03
641.92
642.02
641.93
642.01
641.94
641.43
641.86
642.07
641.88
641.48
641.81
642.12
641.83
642.1
641.85
642.08
641.87
641.49
641.81
642.12
641.26
642.01
641.94
642
641.95
641.42
641.88
642.06
641.32
641.38
641.33
641.95
641.42
641.29
642
641.95
642
641.37
641.92
642.02
641.93
641.44
641.28
641.42
641.87
641.49
641.23
642.04
641.34
641.37
641.35
641.36
641.93
641.43
641.86
641.5
641.22
641.47
641.25
642.02
641.36
641.35
641.94
642
641.38
641.33
641.38
641.9
641.47
641.24
642.03
641.34
641.95
641.42
641.87
641.49
641.23
641.46
641.26
641.44
641.28
641.42
641.87
641.49
641.81
641.55
641.18
642.09
641.87
641.49
641.23
641.46
641.84
641.52
641.78
642.14
641.82
641.53
641.77
642.15
641.81
642.12
641.85
642.08
641.88
642.05
641.9
642.02
641.93
642
641.95
641.98
641.97
641.97
641.41
642.45
642.15
641.8
642.72
641.89
642.63
641.98
641.97
642.55
642.64
641.97
642.55
642.62
642.56
642.04
642.49
642.68
642.51
642.66
642.52
642.65
641.96
642.55
643.21
642.64
642.55
642.63
642.56
642.62
642.57
642.61
642.58
642.6
643.16
642.68
642.51
643.24
643.18
643.23
643.19
643.23
643.2
642.65
643.12
643.3
643.13
643.28
642.57
643.19
643.23
643.19
643.23
643.19
643.23
643.19
643.23
643.19
643.23
643.19
643.23
643.2
643.8
643.28
643.72
643.93
643.74
643.92
643.75
643.91
643.76
643.9
643.77
643.88
643.78
643.87
643.8
643.86
643.8
643.86
643.81
643.85
643.82
643.84
643.82
643.84
643.83
643.84
644.41
643.92
643.76
643.9
644.35
643.97
643.7
643.95
643.73
644.51
644.41
643.92
644.34
643.98
643.7
643.95
644.3
644.01
644.25
644.06
644.2
644.11
644.16
644.72
644.22
644.67
644.26
644.05
644.22
644.66
644.27
644.04
644.23
644.65
644.28
644.6
644.33
644.56
644.95
644.03
644.24
644.64
644.29
644.59
644.34
644.55
644.38
644.51
644.41
644.48
644.44
644.46
644.46
644.43
644.48
644.42
644.5
644.4
645.09
644.47
644.45
644.45
644.46
644.44
644.48
644.43
644.49
644.42
644.5
644.41
644.5
644.4
644.51
644.4
644.51
644.4
644.51
644.4
645.09
644.49
644.43
644.48
644.44
644.47
644.44
644.47
644.45
644.46
644.45
644.46
644.45
644.46
644.45
644.46
644.45
644.46
644.45
644.46
643.87
644.38
644.53
644.39
644.51
644.4
644.5
644.41
644.49
644.42
644.48
644.43
644.47
644.44
644.46
644.45
644.45
644.46
644.45
644.47
644.44
644.47
644.43
644.48
644.43
644.48
644.43
644.48
644.42
644.49
644.42
644.49
644.42
644.49
644.42
644.49
644.42
644.49
644.42
645.07
644.5
644.41
644.49
644.42
645.06
644.51
644.4
644.51
644.4
645.08
644.49
644.42
644.48
644.43
644.48
644.43
644.47
645.02
644.55
644.94
644.63
644.88
644.68
644.24
644.65
644.28
644.62
644.31
644.59
644.33
644.56
644.36
645.12
645.04
644.53
644.97
644.59
644.91
644.65
644.28
645.19
644.39
644.51
644.41
644.49
645.01
644.56
644.37
644.53
644.39
644.51
644.41
644.49
645.01
644.56
644.94
644.62
644.89
644.67
644.84
645.29
644.89
644.67
644.84
645.29
644.89
644.66
644.27
644.62
644.89
644.66
644.85
644.7
644.82
644.73
644.79
644.75
644.77
644.77
644.75
644.79
644.74
644.8
644.73
645.39
644.8
644.74
644.79
645.33
645.44
645.35
644.84
644.7
644.83
644.71
644.81
645.31
644.3
645.16
645.02
645.11
645.07
645.07
645.1
645.04
645.13
645.01
645.15
644.99
645.17
644.98
645.18
644.97
645.19
644.96
645.2
645.54
645.28
644.88
645.27
645.48
645.92
644.91
645.24
644.93
645.22
644.94
645.2
644.96
645.77
645.06
645.68
645.73
645.1
645.06
645.09
645.65
645.75
645.08
645.07
645.09
645.65
645.76
645.07
645.09
645.64
645.18
644.98
645.18
645.56
645.25
645.49
645.9
645.51
645.88
644.95
645.2
645.55
645.27
645.48
645.33
645.42
645.96
645.46
645.93
644.91
645.81
645.6
645.79
645.62
645.78
645.64
646.35
645.73
645.67
645.73
645.67
645.73
645.67
645.73
645.67
646.32
645.76
645.66
646.33
646.33
645.74
646.25
646.4
646.27
645.8
646.2
646.45
646.22
645.84
646.16
646.48
646.19
645.87
646.14
646.5
646.18
646.47
646.21
646.43
646.24
645.82
646.18
646.46
646.22
646.43
646.25
646.4
646.27
646.37
646.3
646.35
646.32
646.33
646.33
646.9
647.02
646.31
646.36
646.3
646.95
646.37
646.29
646.35
646.9
646.42
646.25
646.98
646.94
646.38
646.87
647.03
646.89
647.01
646.91
646.99
646.93
646.39
646.86
647.04
646.89
647.01
646.91
647
646.92
646.98
646.94
646.97
646.95
646.96
646.96
646.95
646.97
646.94
646.97
646.94
647.56
647.02
647.48
647.09
646.83
647.07
646.86
647.05
646.87
647.03
646.89
647.01
646.91
647
646.92
647.57
647.6
646.99
646.93
646.98
647.52
647.06
647.45
647.71
647.47
647.1
646.82
647.66
647.52
647.06
647.45
647.13
647.39
647.18
646.75
647.73
647.46
647.11
647.4
647.75
647.43
647.13
646.8
647.68
647.5
647.07
647.44
647.72
647.47
647.1
647.41
647.74
647.45
647.7
647.48
647.67
648.1
647.73
647.46
647.7
647.49
647.66
647.52
648.22
647.63
646.95
647.55
647.61
647.57
647.59
647.59
647.58
647.6
647.56
648.2
647.64
647.54
647.62
647.56
647.6
647.57
647.59
647.59
648.16
648.27
647.57
648.18
648.24
648.2
647.64
647.54
647.62
648.14
647.7
648.07
647.76
648.01
647.81
647.97
648.44
647.42
648.32
648.13
648.29
648.15
647.68
648.08
648.33
648.11
647.72
648.05
648.36
648.08
647.74
648.03
648.38
648.07
648.34
648.1
648.31
648.72
648.37
648.08
648.34
648.7
647.8
647.97
649.02
648.11
648.31
648.14
648.28
648.16
648.25
648.77
648.32
648.13
648.29
648.74
648.35
648.69
648.4
648.64
649.03
648.68
648.99
648.72
648.95
649.34
649
648.71
648.96
649.33
649.02
648.7
648.97
648.73
648.94
648.77
648.91
649.38
648.97
649.33
649.02
648.69
649.56
648.82
649.45
649.51
648.85
649.44
649.5
649.46
649.49
649.48
649.47
649.49
648.87
649.42
649.53
649.44
648.92
649.37
649.57
649.39
648.96
649.33
649.61
649.36
648.99
649.3
649.63
649.34
649.6
649.37
649.57
649.4
648.95
649.34
649.6
649.96
649.66
649.32
649.62
649.35
649.59
649.38
649.56
649.41
649.54
649.43
650.11
650.12
649.5
649.46
649.49
650.06
649.56
649.4
649.54
649.42
650.11
650.11
650.1
649.53
649.42
650.12
650.1
650.13
650.09
650.13
650.09
649.54
650
650.21
650.01
650.2
650.02
650.19
650.04
650.18
650.05
650.17
650.06
650.75
650.15
650.07
650.15
650.08
650.14
650.08
650.14
650.08
650.14
650.67
650.22
650
650.21
650.02
650.79
650.11
650.11
650.7
650.19
650.62
650.27
650.55
650.92
650.58
650.31
649.93
650.87
650.63
650.26
650.57
650.91
650.6
650.88
650.63
650.85
650.65
650.83
650.67
650.81
651.28
650.88
650.63
650.85
650.65
650.82
650.68
650.8
651.29
650.87
650.64
651.43
650.75
650.74
650.76
650.73
651.36
650.8
651.29
650.87
650.64
651.43
651.34
650.82
651.27
650.88
651.21
651.53
651.25
651.5
651.28
651.47
651.31
651.44
651.33
651.42
651.95
651.48
651.29
651.46
651.32
651.43
651.34
651.41
651.36
651.39
651.38
651.38
651.98
651.45
651.32
651.43
650.75
651.33
651.44
651.32
652.03
651.41
651.36
651.39
651.37
651.38
651.38
651.38
651.39
651.37
651.39
651.37
651.4
651.36
651.99
652.04
652
651.44
651.33
651.43
651.93
651.5
651.86
652.16
651.3
652.05
651.99
652.04
652
652.03
652
652.03
652.01
652.02
652.01
652.02
651.42
651.93
652.1
651.94
652.09
651.95
652.08
651.37
651.98
652.05
651.99
652.05
651.99
652.05
651.99
652.04
651.99
652.04
651.99
652.04
652.59
652.12
651.92
652.11
651.93
652.69
652.03
652.01
652.03
652.01
652.03
652.01
652.62
652.69
652.03
652.01
652.62
652.09
651.95
652.08
652.55
652.75
651.97
652.65
652.66
652.65
652.66
652.65
652.66
652.65
652.66
652.65
652.66
652.65
652.67
652.65
652.67
653.24
652.75
652.57
652.74
652.58
652.73
652.59
652.72
652.6
652.71
652.61
653.3
653.3
652.7
653.21
653.37
653.23
653.36
653.24
652.75
653.16
652.83
653.1
653.48
653.13
653.45
653.16
653.42
653.18
653.4
653.21
652.78
653.14
652.84
653.09
653.48
653.13
654.04
653.25
653.33
653.27
653.32
653.88
653.39
653.22
653.36
653.24
653.34
653.86
653.41
653.2
653.38
653.23
653.35
653.25
653.93
653.36
653.23
653.36
653.82
654.05
653.23
653.96
653.91
653.96
653.31
653.29
653.3
653.89
653.38
653.23
653.36
653.84
653.43
653.18
654
653.88
653.39
653.81
653.45
653.75
653.51
653.7
654.15
653.74
654.11
653.78
653.48
653.73
653.53
653.68
653.57
653.64
654.2
653.7
654.15
653.75
654.1
654.39
654.15
653.75
654.1
653.79
654.06
653.83
654.02
653.87
653.99
654.49
654.05
653.84
654.61
654.56
653.99
653.89
653.97
654.52
654.03
654.46
654.68
654.49
654.06
653.83
654.62
654.55
654
654.48
654.06
654.43
654.11
653.78
654.07
654.42
654.12
654.37
654.77
654.41
654.13
653.77
654.08
654.41
654.73
654.45
654.69
655.09
654.14
654.35
654.78
654.4
654.73
654.45
654.69
654.48
654.66
654.52
654.63
655.14
654.69
654.49
654.66
654.52
654.63
654.54
654.01
654.48
654.66
654.51
654.64
654.53
654.61
654.55
654.59
654.57
654.58
654.59
654.57
654.6
654.56
654.61
655.15
654.7
654.46
654.69
653.87
655.19
654.65
655.12
654.72
654.45
654.7
655.07
654.76
655.01
654.82
654.36
655.38
655.08
655.35
655.11
655.32
654.53
654.62
655.15
655.29
655.16
654.67
655.09
655.34
655.12
654.72
655.05
655.37
655.09
655.34
655.11
655.32
655.14
655.3
655.16
655.28
655.78
655.34
655.11
655.32
655.14
655.29
655.16
655.27
655.18
655.26
655.2
655.24
655.21
655.23
655.22
655.22
655.23
655.21
655.84
655.29
655.76
655.36
655.1
655.93
655.21
655.23
655.22
655.22
655.83
655.3
655.75
655.37
655.69
656.03
655.72
655.99
655.15
655.28
655.77
655.95
655.8
655.33
655.13
655.9
655.84
655.29
655.77
655.35
655.1
655.33
655.73
655.39
655.68
656.04
655.71
655.4
656.26
656.14
655.62
656.09
655.67
656.04
655.71
656
656.35
656.05
655.71
656.61
656.43
655.98
655.77
656.54
655.89
655.83
655.91
655.82
656.52
655.9
655.85
655.88
656.46
655.95
655.8
656.53
656.51
655.91
656.44
656.58
656.46
656.56
656.48
656.54
656.49
655.92
656.42
656.59
656.44
656.57
656.46
656.55
656.48
656.54
656.5
656.52
657.11
656.6
656.44
657.18
656.54
656.48
656.54
656.48
657.15
656.56
656.47
657.15
657.17
656.55
657.09
656.62
657.01
656.69
656.95
657.35
656.98
656.72
656.93
656.77
656.28
657.33
657.01
657.3
657.64
656.75
656.9
657.4
656.95
657.35
656.99
657.31
657.03
657.28
657.06
657.25
657.09
657.22
657.11
657.2
657.13
657.18
657.15
657.16
657.17
657.15
657.18
657.74
657.28
657.05
657.88
657.74
657.88
657.14
657.79
657.82
657.8
657.21
657.12
657.8
657.82
657.19
657.74
657.27
657.67
657.94
657.09
657.83
657.8
657.21
657.72
657.89
657.74
657.27
657.66
657.94
657.09
657.22
657.71
657.9
657.73
657.88
657.75
657.86
657.16
657.76
657.86
658.36
657.94
657.68
658.54
658.38
657.92
657.7
657.91
658.31
658.59
657.73
658.49
657.83
658.4
657.91
658.32
658.59
657.73
658.49
657.83
658.4
658.52
657.8
658.42
658.49
658.42
658.49
658.43
658.49
658.43
658.48
658.43
657.88
657.74
658.47
658.44
659.08
658.53
658.39
658.52
658.4
658.51
658.41
658.5
658.42
658.49
658.43
659.09
658.52
659
658.6
658.32
658.58
658.34
658.57
658.36
659.16
658.46
658.46
659.06
658.54
658.98
659.22
659
658.6
658.93
658.66
658.88
658.72
658.83
659.37
658.87
659.32
658.31
659.2
659.03
659.17
659.06
658.55
658.99
659.21
659.02
659.19
658.44
659.07
659.15
659.06
659.16
659.06
659.16
659.05
659.17
659.05
659.17
659.05
659.17
658.44
659.09
659.13
659.71
659.2
659.03
659.18
659.65
659.25
659.59
659.31
659.54
659.97
658.97
659.84
659.09
659.12
659.71
659.2
659.64
659.26
659.58
659.92
659.62
659.89
659.04
659.16
659.67
659.84
659.7
659.81
659.72
659.79
659.74
659.77
659.75
659.76
659.77
659.75
659.78
659.74
659.78
659.73
659.79
659.73
659.79
659.73
660.41
659.81
659.72
659.8
659.73
659.79
659.74
659.78
659.75
659.77
659.75
659.77
659.76
659.76
659.76
660.37
659.85
659.68
660.45
659.77
660.36
659.86
659.67
659.85
659.68
660.44
659.78
659.74
660.39
659.83
659.7
659.82
659.71
660.42
659.8
659.72
660.4
660.42
660.41
659.81
660.32
660.5
659.72
660.4
660.43
660.4
660.42
660.41
660.42
660.41
660.42
660.41
660.42
660.41
660.42
659.8
660.33
660.49
660.34
660.48
660.35
660.47
659.75
660.38
660.45
660.38
660.45
660.38
660.44
660.39
659.83
660.3
660.52
660.32
660.5
660.33
661.1
661.04
661.09
660.44
660.39
661.05
660.48
660.36
660.47
660.37
661.07
660.46
660.37
661.07
660.46
660.37
660.45
660.38
660.44
660.39
661.05
661.09
660.44
661
660.52
660.32
660.5
660.94
660.57
660.27
660.55
660.9
660.61
660.84
660.67
660.79
661.32
660.84
661.28
660.88
661.24
660.92
660.59
660.87
661.25
660.91
661.21
660.95
661.18
660.98
660.54
660.92
661.2
660.96
661.16
660.99
661.74
661.11
661.64
661.82
661.02
661.12
661.01
661.13
661.01
661.14
661
661.14
661
661.14
661
661.14
661
661.14
661
661.75
661.09
661.66
661.17
661.59
661.24
661.53
661.91
660.95
661.79
661.67
661.77
661.69
661.14
661.61
661.83
661.64
661.8
661.66
661.79
662.29
661.86
661.61
661.83
662.24
661.9
661.57
662.48
662.3
661.85
661.62
661.82
662.25
661.89
661.58
661.86
661.61
661.83
661.64
662.42
662.36
661.79
662.28
662.47
662.31
661.84
661.63
661.81
662.26
661.88
662.2
661.94
662.15
661.98
662.1
662.02
662.07
662.06
662.04
662.08
662.01
662.1
662
662.73
662.07
662.66
662.14
662.6
662.2
661.93
662.16
662.58
662.22
662.52
662.27
662.48
662.31
662.44
662.35
662.4
662.99
662.46
662.32
662.43
662.36
662.39
662.38
662.37
663.02
662.44
662.96
662.5
662.29
662.46
662.32
663.04
662.44
662.32
662.45
662.92
663.16
662.31
662.46
662.92
663.16
662.31
662.45
662.31
663.68
662.49
662.29
663.08
662.4
662.37
662.4
662.98
663.11
662.37
662.4
662.37
662.4
662.37
662.4
662.37
663.01
662.46
662.93
662.54
662.24
662.52
662.26
663.11
662.37
662.4
662.37
662.4
662.37
662.4
662.37
662.39
662.37
661.78
661.67
661.78
662.29
661.86
661.6
661.84
661.62
661.83
661.63
662.42
662.34
661.81
661.65
661.8
662.27
661.87
661.59
662.46
661.7
661.75
661.7
661.74
661.71
661.74
662.33
662.43
661.73
661.72
662.34
662.42
662.35
661.8
662.27
661.87
662.2
662.55
662.23
662.52
662.26
661.88
662.2
661.94
662.14
662.6
662.19
662.56
661.61
662.43
662.34
662.41
662.36
662.4
662.99
663.08
662.4
662.36
662.41
662.35
663.03
662.43
662.96
662.5
662.89
662.56
662.23
663.14
662.96
662.5
662.29
662.47
662.93
662.53
662.26
663.11
662.38
662.38
663
663.07
663.02
662.44
662.34
663.03
663.06
663.02
662.46
662.92
663.16
662.31
663.07
663.01
662.46
662.31
662.46
662.31
661.84
661
661.13
660.4
660.43
659.79
659.74
659.18
659.05
658.56
658.97
659.24
658.99
658.61
658.92
659.89
659.04
658.57
658.36
659.15
659.07
657.93
658.3
658
658.24
658.06
658.19
658.71
658.23
658.06
658.18
658.71
658.23
658.67
658.27
658.63
658.91
658.68
658.26
658.63
658.3
658.6
658.34
658.56
658.37
658.53
658.4
659.11
659.12
658.49
659.04
659.16
659.07
659.14
658.48
659.03
658.58
658.94
659.27
658.35
659.17
659.04
659.17
659.65
659.87
659.05
659.77
659.14
659.08
658.52
659.01
659.2
659.03
658.58
658.96
658.64
658.9
658.7
658.85
659.35
658.89
659.31
658.93
659.88
659.05
658.55
658.99
658.61
658.93
658.67
658.27
659.23
658.4
658.51
658.42
658.49
659.04
658.56
658.37
658.53
658.4
658.51
657.81
657.8
657.22
657.1
657.83
657.18
657.75
657.26
656.47
657.15
657.18
656.54
657.1
657.21
657.11
656.6
657.04
657.27
655.86
656.47
657.16
657.15
656.57
656.46
656.57
657.06
656.65
656.38
656.64
656.4
657.23
656.5
656.53
656.5
656.53
656.5
656.53
656.5
656.52
656.5
656.52
656.5
657.12
656.59
656.44
656.58
656.45
656.58
656.45
656.57
656.46
656.56
657.07
656.64
656.39
656.62
657.01
657.3
657.03
656.67
656.97
657.34
657
657.31
656.42
657.2
657.13
656.58
657.05
657.26
657.68
656.72
656.32
657.29
657.04
656.66
656.38
657.23
657.1
656.61
657.03
657.28
657.06
656.65
657
657.31
657.03
656.67
656.97
657.33
657.01
657.29
657.05
657.26
657.08
656.62
657.02
657.28
656.45
656.56
657.08
657.23
657.11
656.6
656.44
657.17
656.55
656.47
657.17
656.54
657.09
657.21
656.52
657.1
656.62
656.41
657.22
657.1
656.62
656.41
656.62
657.01
657.3
656.42
657.2
656.52
657.12
656.6
657.04
657.27
656.46
656.56
657.07
656.64
657
656.1
656.86
656.84
656.21
656.79
656.26
656.74
656.31
656.7
656.34
656.66
656.38
656.03
656.32
656.68
655.76
656.56
657.08
657.83
659
658.6
658.94
659.25
658.37
659.13
659.09
659.12
659.11
659.1
659.12
659.7
659.82
659.7
660.43
660.39
661.05
661.08
661.06
661.68
662.38
661.77
662.3
662.46
662.32
662.44
662.33
662.43
662.35
662.41
662.36
662.4
661.76
662.31
661.85
661.61
662.45
661.71
661.74
661.71
661.13
661.62
661.83
661.63
661.81
661.03
661.71
661.13
661.01
661.12
661.02
660.51
660.94
661.19
660.96
661.18
660.97
661.16
660.99
661.15
661
660.53
660.31
660.51
660.33
660.49
660.34
660.48
659.75
660.38
660.45
659.77
659.75
659.77
659.75
659.77
659.76
659.16
659.67
659.84
659.08
659.13
659.09
659.13
659.09
658.52
659.01
658.59
658.34
658.57
658.36
658.55
658.38
657.93
658.31
657.99
657.64
658.56
657.76
657.85
657.77
657.84
658.39
657.91
657.72
657.28
657.05
657.86
657.16
657.15
657.77
657.23
657.7
657.3
657.64
657.36
656.98
657.32
657.02
657.29
657.05
656.65
656.99
656.71
656.34
656.67
656.38
656.63
655.81
655.31
652.76
652.55
653.36
652.04
652
652.03
651.42
651.93
652.11
651.93
652.11
651.93
652.7
652.61
652.7
652.61
652.71
652.61
652.71
652.01
652.62
652.09
652.54
652.16
651.89
652.73
652.59
652.12
652.52
652.19
651.86
652.16
651.89
652.13
651.92
652.11
651.94
652.68
652.64
652.67
653.84
654.02
654.46
655.29
655.76
655.96
656.99
657.32
657.62
657.98
657.66
657.95
657.69
658.52
657.8
658.42
658.5
658.41
658.51
657.8
658.42
658.49
658.43
657.87
657.75
658.46
658.46
657.85
658.38
658.53
658.4
658.51
657.81
658.41
658.51
658.41
658.5
657.81
658.42
657.89
657.74
657.87
657.75
657.86
657.76
657.85
658.38
657.93
657.1
657.82
657.8
657.81
658.41
657.89
657.73
657.88
657.75
657.86
657.16
657.76
657.85
657.76
657.85
657.77
657.85
657.77
657.85
657.17
657.16
657.16
656.56
656.47
656.55
656.47
653.55
651.87
652.16
652.48
652.82
652.51
652.2
651.85
652.17
652.47
652.82
651.91
652.12
652.53
652.18
652.47
652.83
652.5
652.79
652.53
653.36
653.84
654.02
653.87
654.59
654.57
654.58
654.59
655.16
655.28
655.16
655.89
655.84
656.5
655.92
655.82
655.9
656.44
656.57
655.86
655.87
656.47
655.94
655.8
655.92
655.82
655.3
655.15
655.28
652.19
648.9
649.98
650.82
651.27
651.48
651.3
652.05
651.4
651.35
651.41
651.35
652.01
652.02
652.61
653.29
653.3
653.28
653.91
654.56
655.2
654.64
655.12
655.31
655.74
655.38
655.68
656.04
655.71
655.41
655.05
655.38
655.08
654.75
655.03
654.8
654.38
654.16
653.73
654.12
653.77
653.49
653.12
653.45
653.16
653.41
653.19
653.38
653.82
652.85
653.08
653.49
653.13
652.85
652.48
652.81
652.52
652.18
652.47
652.22
652.43
652.26
651.8
652.21
651.26
651.49
651.29
650.86
650.65
646.71
645.98
647.22
646.72
647.17
646.77
647.11
647.41
647.74
648.04
648.36
648.09
648.32
648.13
648.87
648.84
648.84
649.45
649.49
649.48
648.88
649.41
649.53
648.85
648.83
648.87
648.81
649.47
648.29
648.15
648.27
648.18
647.66
647.53
642.41
641.57
642.91
642.88
644.09
643.03
643.37
643.65
644.57
644.93
644.62
644.89
645.24
646.1
646.53
646.73
646.57
646.7
646.6
646.67
646.63
646.65
646.65
646.04
646.58
646.1
645.94
645.49
645.89
645.55
645.25
644.93
644.62
642.57
640.87
641.21
641.48
641.83
642.1
641.87
642.06
642.48
642.1
641.86
642.06
642.47
642.69
642.51
643.23
643.2
643.21
643.8
643.27
643.74
643.33
643.11
643.29
643.14
642.69
643.09
642.74
642.46
642.7
641.92
642.01
641.94
641.99
641.39
641.32
641.4
640.74
641.32
641.38
641.34
641.37
641.35
641.35
641.36
640.77
641.29
640.84
641.22
640.9
640.59
640.87
640.62
640.85
641.22
640.91
641.16
640.96
641.11
641.58
640.58
640.88
640.61
640.85
640.64
640.25
640.01
639.08
638.16
638.39
638.19
637.8
637.56
637.77
638.16
638.4
638.75
638.45
638.13
638.42
638.74
639.04
639.34
639.66
639.95
639.71
639.9
640.89
640.6
640.28
639.98
640.82
640.1
640.14
640.12
640.12
639.56
640.02
640.22
639.45
639.57
639.45
639
637.65
637.7
637.65
637.7
638.21
637.79
637.56
637.78
637.57
638.34
637.66
638.26
638.31
638.26
638.3
638.84
638.95
638.85
638.94
638.86
638.93
638.87
638.92
639.45
638.43
639.29
639.14
639.24
639.75
638.71
639.06
638.74
639.03
639.34
638.52
638.64
638.56
638.6
639.17
638.65
639.12
638.69
639.08
638.74
639.04
638.77
638.43
638.72
638.48
638.11
638.44
638.15
638.4
638.19
637.8
638.14
638.41
638.17
637.81
638.13
637.85
637.52
637.24
637.48
637.28
636.87
637.23
636.36
636.54
636.39
635.94
635.78
635.91
635.81
635.88
635.83
635.85
635.29
634.63
634.66
634.61
635.23
634.68
634.61
634.66
634.63
634.08
634
634.06
633.46
632.84
632.27
631.63
631.64
631.62
631.65
631.61
631.66
631.6
631.11
630.96
631.66
631.04
631.03
631.04
631.04
631.03
631.04
631.03
631.04
630.47
630.97
630.54
630.34
631.08
630.44
630.99
631.08
630.44
630.44
630.44
630.44
630.44
630.44
630.44
630.44
630.44
630.44
630.44
630.44
629.89
629.8
630.44
629.88
629.81
629.87
629.81
629.87
629.27
629.78
629.9
630.34
629.98
629.72
629.41
629.65
629.47
629.6
629.52
629
629.48
629.59
629.53
628.99
629.48
629.03
629.44
629.07
628.86
629.02
629.45
628.51
629.33
628.62
629.23
629.27
628.66
629.2
628.73
628.59
628.71
628.61
628.69
628.63
628.67
628.64
628.1
628.58
628.17
628.52
628.77
628.55
628.19
627.95
628.16
627.98
628.13
628.01
628.11
628.03
627.53
627.42
628.06
628.07
627.5
627.45
627.48
628.02
627.54
627.41
627.52
627.43
626.95
626.82
626.93
626.84
626.36
626.78
626.97
626.26
626.31
626.28
626.3
626.29
626.29
626.3
626.28
626.31
626.27
625.77
625.64
625.77
625.64
625.77
625.1
625.68
625.72
625.15
625.63
625.77
625.64
625.22
625.02
625.75
625.11
625.67
625.74
624.58
625.03
625.2
625.04
625.19
625.05
625.17
625.07
625.16
625.08
625.15
625.09
625.14
624.55
625.06
624.63
624.98
624.7
624.37
624.68
624.39
624.67
624.4
624.65
624.42
624.09
624.35
624.16
624.3
624.2
623.71
624.17
624.29
624.21
624.25
624.25
623.67
624.2
623.72
624.15
623.22
624.04
623.87
624.01
623.9
623.99
623.92
623.97
623.93
623.95
623.95
623.94
623.96
623.38
623.9
623.99
623.92
623.97
623.93
623.41
623.87
623.47
623.82
623.52
623.77
624.1
623.81
624.07
623.84
623.49
623.79
623.54
623.75
623.58
623.71
624.15
623.22
624.03
623.34
623.38
623.36
623.36
623.38
623.34
623.4
623.33
623.41
623.31
623.42
622.76
623.35
622.83
622.74
622.81
622.76
622.79
622.78
622.78
622.79
622.23
622.72
622.29
622.66
622.89
622.15
622.25
622.16
622.23
622.18
621.68
622.11
621.74
621.51
621.71
621.54
621.69
621.02
621.06
621.03
621.05
620.5
620.42
620.5
620.42
620.5
620.42
620.5
620.43
619.96
619.81
619.95
619.82
619.95
619.29
619.32
619.3
618.79
618.69
618.78
618.16
618.16
618.17
617.62
617.56
617.08
616.96
617.07
616.97
616.53
616.37
616.51
616.39
616.5
615.87
615.35
614.75
614.73
613.7
613
612.05
609.71
608.1
606.9
606.4
605.79
604.79
604.62
604.27
603.54
603.17
602.45
602.07
600.87
599.9
598.72
597.25
595.52
593.06
591.72
590.45
588.12
586.76
585.04
584.62
584.5
583.66
581.53
580.53
579.51
578.51
577.5
577.43
577.5
576.5
576.44
576.03
575.45
575.49
575
575.42
575.07
575.35
575.13
574.84
574.65
573.86
574.11
573.88
574.09
573.89
573.62
572.92
573.53
573.46
572.61
571.96
571.62
570.53
570.11
569.57
570.03
570.09
570.03
569.63
569.06
568.66
567.2
566.66
564
562.27
561.57
560.84
560.61
560.36
560.15
559.88
558.81
557.97
557.41
557
556.94
556.11
555.98
555.65
555.51
555.19
554.62
554.24
554.15
552.93
552.7
552.47
552.25
551.59
550.88
550.64
550.85
550.25
550.33
550.27
550.31
549.87
549.39
549.4
548.53
548.45
548.09
547.99
547.65
547.53
546.79
546.18
545.87
545.73
545.01
544.8
544.57
544.36
544.54
543.97
544.04
543.58
543.13
543.53
543.18
542.67
542.69
542.27
542.2
542.28
541.79
541.82
541.78
541.83
540.95
541.31
541.41
540.91
540.92
540.92
541.32
541.4
540.51
540.87
540.56
540.82
540.6
540.38
540.58
540.8
540.62
540.77
541.06
541.2
541.09
540.76
540.66
540.73
540.68
540.3
540.65
540.33
540.62
540.36
540.59
540.39
540.56
540.41
540.54
540.02
539.25
539.51
539.28
539.07
539.26
538.69
539.18
539.17
538.76
538.71
538.75
538.73
538.74
538.33
538.67
538.8
538.27
538.33
538.27
538.34
537.86
537.87
538.26
537.94
537.8
537.93
537.8
537.92
537.41
537.86
537.87
537.86
537.46
537.4
537.46
537.41
537.05
536.55
536.58
536.55
535.78
535.64
535.37
535.19
534.95
534.75
534.54
534.31
533.72
533.02
533.24
532.64
532.77
532.65
532.37
532.6
532.41
532.17
531.99
531.74
531.57
531.31
531.55
530.94
531.07
530.96
531.06
530.97
530.65
530.54
530.63
530.16
530.17
530.17
529.77
530.12
529.42
529.24
529.4
528.87
528.54
528.43
528.14
528.39
527.79
527.91
528.2
527.56
527.73
527.58
527.71
527.6
527.3
527.17
527.28
527.19
526.88
526.76
526.86
526.78
526.46
526.74
526.49
526.32
526.47
526.34
526.06
525.91
525.66
525.49
525.25
524.69
524.02
523.83
523.99
523.47
523.53
523.49
523.14
522.68
521.92
521.44
521.09
520.64
520.26
520.22
519.87
519.42
519.05
519
518.66
518.21
517.84
517.79
517.83
517.8
517.45
517.38
517.44
517.39
517.05
516.97
516.67
516.55
516.66
516.57
516.64
516.58
516.26
516.16
515.88
515.75
515.49
515.34
515.48
515.35
515.09
514.94
514.33
514.48
514.37
514.08
514.34
513.74
513.53
512.97
513.09
512.98
512.34
512.16
511.95
511.76
511.56
511
511.85
511.85
511.48
511.44
510.74
510.98
510.41
510.17
510.39
510.19
509.64
509.38
509.25
508.99
508.5
508.19
508.11
508.17
508.49
508.56
508.51
508.54
508.52
507.81
507.71
507.07
507.27
506.74
506.83
506.4
505.69
505.24
504.9
504.5
503.77
503.34
503.34
502.65
501.82
501.85
501.46
501.81
501.5
501.42
501.13
501.03
500.76
500.65
500.74
500.32
499.98
499.93
499.96
499.59
499.21
499.2
499.2
499.21
498.5
498.76
498.54
498.38
498.17
498
498.15
497.68
497.39
497.29
497.38
496.96
496.97
496.28
496.18
495.94
495.44
495.2
495.05
495.19
494.72
495.13
495.11
495.13
495.11
495.13
495.11
494.79
494.38
494.4
493.7
493.28
492.97
492.89
492.62
492.51
492.28
492.47
492.65
492.82
492.35
492.06
492.33
492.08
491.97
491.37
491.56
491.39
491.55
491.4
491.2
490.7
490.8
490.37
490.74
490.43
490.35
490.42
490.35
490.76
490.07
490.33
490.44
490.34
490.1
490.3
490.47
490.65
490.5
490.29
490.48
490.3
490.46
490.32
490.11
489.95
489.76
489.59
489.74
489.6
489.39
489.24
489.37
489.25
488.68
488.51
488.66
488.53
487.98
487.78
487.96
487.81
487.27
487.07
486.92
486.71
486.56
486.36
486.21
485.67
485.47
485.32
485.45
485.34
484.77
484.93
484.8
484.26
484.4
483.95
484
482.99
482.54
482.3
481.84
481.6
481.14
480.91
480.77
480.59
480.08
480.21
479.76
480.16
479.8
479.48
479.43
479.16
478.74
478.15
477.69
476.83
475.65
475.73
475.03
474.69
474.66
474.69
474.98
474.73
474.62
475.04
474.68
474.67
474.36
474
474
473.68
473.65
473.68
473.65
473.67
473.34
473.31
473.97
473.71
473.93
474.06
473.95
474.05
473.65
473.99
474.01
473.67
473.66
473.67
473.66
473.66
473.36
473.3
473.04
472.94
472.73
472.9
472.77
471.93
472.04
471.93
471.73
471.27
471.06
471.23
471.09
471.2
471.43
471.21
471.42
471.54
471.45
471.51
471.78
471.53
471.76
472.49
472.81
472.83
472.83
472.81
473.16
473.16
473.17
472.83
472.83
472.19
472.12
471.56
471.43
471.23
471.09
470.59
470.4
469.95
469.71
469.31
469.03
468.67
468.05
467.68
467.37
467.04
467.01
467.05
467
466.76
466.34
466.42
465.72
465.73
465.41
465.39
465.09
464.76
464.43
464.42
464.12
464.09
463.81
463.76
463.5
463.12
463.14
462.84
462.79
462.54
461.55
460.33
459
458.39
458.03
457.47
457.07
456.55
456.11
456.21
455.82
455.88
455.24
455.21
455.24
455.22
454.95
454.89
454.66
454.27
454.32
454.28
454.03
453.66
453.41
453.05
452.79
452.44
452.17
452.11
451.6
451.18
450.98
450.86
450.69
450.26
450.07
449.66
449.46
449.63
449.49
449.03
449.15
449.32
449.19
449.01
448.89
448.7
448.59
448.4
448.3
448.37
448.32
447.79
447.98
448.09
448
447.79
447.98
447.81
447.68
447.5
447.66
447.24
447.05
446.94
446.75
446.63
446.46
446.33
446.44
446.07
446.11
446.08
445.82
445.77
445.53
445.46
445.52
445.2
445.19
445.21
444.91
444.9
444.62
444.59
444.34
444.28
444.05
443.7
444
443.75
443.4
443.16
443.09
442.89
442.5
442.58
442.5
442.3
441.91
442.26
442.23
442.26
441.68
441.91
441.99
442.19
442.29
441.93
441.97
441.66
441.65
441.66
441.38
441.35
441.1
440.78
440.78
440.51
440.47
440.24
440.16
440.23
439.9
440.19
439.67
439.57
439.66
439.31
439.08
439.01
439.07
439.01
438.53
438.13
438.21
438.14
438.21
437.88
437.9
437.34
437.28
437.34
437.02
436.5
436.41
436.23
435.85
435.38
434.72
434.77
434.2
433.9
433.9
433.37
433.04
432.54
432.44
432.53
432.19
431.96
431.9
431.7
431.61
431.17
431.02
431.15
430.77
430.59
430.23
430.54
430.53
430.27
430.24
430.01
429.95
429.74
429.66
429.47
429.64
429.5
429.36
429.23
429.08
428.95
428.8
428.68
428.52
428.66
428.28
428.35
428.04
427.8
428.01
428.08
428.02
427.81
427.74
428.06
427.78
427.5
428.01
428.33
428.31
428.07
428.28
428.35
428.29
428.34
428.3
428.33
428.57
428.36
428.54
428.39
428.52
428.67
428.53
428.65
428.55
428.38
428.52
428.4
428.5
428.17
428.19
428.44
428.22
428.16
427.95
427.88
428.19
427.93
427.63
427.64
427.62
427.65
427.36
427.62
427.13
427.05
427.12
426.8
426.31
426.23
425.79
425.91
425.81
425.39
425
424.83
424.73
424.3
424.42
424.57
424.19
424.01
423.92
423.99
424.19
423.76
423.88
424.03
423.91
423.51
423.6
423.77
423.63
423.5
423.36
423.48
423.63
424.25
424.47
424.78
424.52
424.23
424.24
424.22
424
423.67
423.47
423.38
423.22
422.84
422.93
422.59
422.64
422.34
422.11
422.05
421.86
421.52
421.58
421.52
421.58
421.03
421.01
421.03
421.01
420.78
420.73
420.53
420.7
420.56
420.42
420.55
420.43
420.29
420.16
420.28
419.92
419.74
419.64
419.49
419.62
419.27
419.31
419.54
419.33
419.27
419.31
419.29
419.29
419.31
419.03
419.04
419.02
419.05
418.52
418.74
418.3
418.2
418.04
418.18
418.06
417.92
417.55
417.62
417.81
417.64
417.54
417.63
417.31
417.09
417.29
417.12
417.02
416.86
416.76
416.85
416.77
416.59
416.51
416.58
416.52
416.32
416.5
416.1
416.2
416.12
416.19
416.13
416.17
416.14
415.92
416.12
415.94
415.85
415.93
415.63
415.88
415.91
415.64
415.64
415.63
415.64
415.63
415.65
415.63
415.65
415.38
415.37
415.14
415.34
415.65
416.35
416.47
416.36
416.22
416.34
416.25
416.07
415.99
416.05
416.01
415.79
415.75
415.78
415.76
415.52
415.5
415.51
415.75
415.53
415.73
415.79
415.75
415.54
415.73
415.8
415.5
415.51
415.51
415.5
415.52
415.25
415.49
415.52
415.5
415.27
415.23
415.26
415.24
415.01
414.97
415.01
414.98
414.76
414.71
414.51
414.68
414.54
414.42
414.52
414.43
414.04
413.89
414.26
413.94
413.98
413.94
413.49
413.64
413.28
413.34
413.06
413.29
413.35
412.8
413.05
412.83
412.79
412.57
412.53
412.56
412.31
412.04
411.81
411.52
411.55
411.28
