445.43
445.27
444.86
444.11
443.65
443.22
442.49
441.48
440.44
439.72
438.72
437.17
435.57
434.3
433.02
431.51
430.21
429.01
427.47
425.99
424.48
423.52
422.34
420.86
418.93
417.89
416.6
415.52
415.02
414
413.44
412.73
411.92
411.43
410.68
409.9
409.64
408.92
407.68
406.66
405.93
405.17
404.45
403.24
402.25
401.52
400.8
399.85
399.33
398.66
398.13
397.48
397.15
396.78
396.22
395.61
395.26
395.35
395.26
395.12
395.02
395.11
395.03
394.88
394.79
394.66
394.77
394.68
394.75
395.35
395.48
395.37
395.46
395.83
395.94
395.63
395.46
395.61
395.69
395.63
395.46
395.61
395.47
395.59
395.49
395.58
395.28
395.32
395.29
395.31
395.3
395.09
395.06
395.08
395.06
394.86
394.82
394.85
394.83
394.62
394.8
394.65
394.78
394.67
394.54
394.65
394.34
394.18
394.32
394.41
394.11
394.15
394.12
393.93
394.1
393.95
393.86
393.72
393.84
393.53
393.36
393.51
393.37
393.28
393.14
393.48
393.41
393.03
393.14
393.05
393.12
393.06
392.89
393.26
393.16
393.03
392.93
393.23
393.4
393.47
393.41
393.46
393.64
393.69
393.65
393.68
393.88
393.71
393.86
393.94
394.08
393.96
393.85
394.16
394.11
393.94
394.09
394.17
394.1
393.95
394.08
394.18
394.09
393.95
394.07
393.97
394.06
394.2
394.08
393.97
394.28
394.45
394.3
394.43
394.31
394.63
394.58
394.62
394.8
394.64
394.78
395.1
395.05
394.87
395.02
395.33
395.29
395.32
395.51
395.56
395.52
395.55
395.53
395.76
395.57
395.73
396.04
396.2
396.51
396.45
396.73
396.7
396.95
396.95
397.17
397.42
397.65
397.67
397.87
398.36
398.39
398.58
399.08
399.32
399.79
399.83
400.24
400.56
400.5
400.55
400.95
401.06
401.19
401.09
401.16
401.33
401.18
401.32
401.41
401.79
401.46
401.75
401.95
402.23
402.44
402.26
402.41
402.73
402.91
402.76
402.88
403.01
403.12
403.26
403.36
403.96
404.35
404.7
404.86
405.18
405.13
405.17
405.14
405.4
405.41
405.39
405.64
405.88
405.91
405.88
406.14
406.14
406.37
406.4
406.38
405.94
405.86
405.93
406.09
406.41
406.6
406.44
406.57
406.69
406.82
406.71
406.8
406.73
406.78
406.52
406.5
406.76
406.53
406.27
406.25
406.51
406.28
406.26
406.27
406.5
406.29
406.24
406.28
406.48
406.54
406.49
406.53
406.96
406.59
406.91
407.1
407.39
407.38
407.38
407.62
407.86
407.9
407.86
407.91
408.32
408.44
408.32
408.44
408.32
408.68
408.59
408.91
408.85
408.91
408.62
409.11
408.92
408.85
408.91
409.09
408.93
409.07
408.96
409.05
409.21
408.83
408.93
409.07
409.18
409.32
409.21
409.53
409.96
410.05
409.98
410.04
410.47
410.32
410.22
410.07
410.2
410.32
410.22
410.3
410.47
410.55
410.49
410.54
410.74
410.56
410.95
410.61
410.91
411.13
410.93
410.87
411.16
411.15
411.39
411.42
411.62
411.93
411.65
411.9
411.92
411.91
412.15
412.18
412.15
412.19
412.39
412.46
412.63
412.49
412.6
412.75
412.61
412.75
412.61
412.98
412.89
412.73
412.63
412.96
412.91
412.96
412.91
412.95
412.92
412.95
412.92
413.18
413.2
413.18
412.96
412.9
412.96
412.67
412.69
412.67
412.45
412.63
412.48
412.6
412.75
412.61
412.5
412.58
412.53
412.56
412.55
412.54
412.56
412.29
412.78
412.34
412.49
412.36
412.48
412.37
412.47
412.15
412.42
412.42
412.42
412.43
412.18
412.16
412.41
412.44
412.17
412.17
412.4
412.44
412.4
412.44
412.4
412.21
412.37
412.48
412.37
412.47
412.14
412.43
412.41
412.2
412.14
412.43
412.41
412.43
412.41
412.67
412.69
412.67
412.68
412.67
412.68
412.67
412.92
412.95
412.92
413.18
412.95
412.91
412.95
413.16
412.98
412.89
412.97
413.13
413
412.87
413.23
412.91
412.95
413.16
413.22
413.16
413.21
413.41
413.48
413.65
413.51
413.39
413.49
413.64
413.76
413.41
413.71
413.69
413.47
413.66
413.74
413.67
413.49
413.65
413.51
413.62
413.53
413.36
413.28
413.35
413.53
413.36
413.52
413.38
413.5
413.4
413.49
413.65
413.75
413.9
414.01
413.44
413.69
413.96
413.96
413.96
413.95
413.97
413.95
413.97
413.94
413.74
414.14
414.05
413.88
414.04
414.12
414.3
414.13
414.29
414.14
414.28
414.15
414.28
414.4
414.54
414.17
414.26
414.42
414.52
414.43
414.51
414.44
414.27
414.41
414.53
414.42
414.52
414.43
414.51
414.44
414.74
414.73
414.97
414.77
414.46
414.73
414.73
414.74
414.48
414.95
415.03
414.96
415.02
415.21
415.28
415.22
415.51
415.26
415.23
415.27
415.47
415.3
415.19
415.3
415.2
415.54
415.24
415.5
415.51
415.75
415.3
415.44
415.56
415.7
415.59
415.67
415.85
415.69
415.83
415.71
415.82
415.96
415.84
415.7
416.07
415.99
416.06
415.76
416.01
416.04
415.77
415.77
415.76
415.53
415.48
415.53
415.72
415.81
415.48
415.53
415.48
415.53
415.24
415.49
415.52
415.5
415.27
415.23
415.51
415.51
415.27
415.23
415.26
415.48
415.3
415.2
415.53
415.49
415.28
415.22
415.52
415.26
415
415.22
415.03
415.19
415.06
414.93
415.05
414.94
415.04
414.94
415.03
414.95
415.02
414.96
415.01
414.97
415.01
415.21
415.28
414.98
415
414.98
414.99
414.99
414.99
414.99
414.99
415.23
415.02
414.96
415.01
415.21
415.04
415.18
415.31
415.19
415.06
415.17
415.32
415.18
415.07
414.92
415.05
415.17
415.07
415.15
415.33
415.17
415.07
414.91
415.3
415.21
415.04
415.18
415.06
415.16
415.32
415.18
415.3
415.44
415.32
415.18
415.55
415.47
415.53
415.49
415.52
415.74
415.55
415.72
415.81
415.97
415.83
415.71
415.81
415.73
415.8
415.74
416.03
416.03
416.02
416.04
416.01
416.04
415.76
416.01
416.03
416.02
415.79
415.75
416.02
415.79
415.74
415.79
415.74
415.8
415.5
415.76
415.77
415.76
415.52
415.49
415.52
415.74
415.55
415.47
415.54
415.72
415.57
415.45
415.56
415.46
415.55
415.47
415.78
415.51
415.5
415.51
415.74
415.79
415.5
415.51
415.5
415.52
415.5
415.76
415.77
415.76
415.53
415.48
415.53
415.49
415.52
415.73
415.56
415.7
415.58
415.43
415.81
415.96
415.84
415.7
415.83
415.71
415.82
415.72
416.05
416
415.8
415.97
415.83
415.95
416.1
416.2
416.12
415.94
416.1
416.2
416.12
416.18
416.14
415.92
416.36
415.98
416.07
416.23
416.33
416.24
416.08
416.22
416.58
416.51
416.33
416.49
416.59
416.51
416.34
416.48
416.6
416.74
416.62
416.72
416.88
416.99
416.89
416.73
416.87
416.99
417.13
417.25
417.39
417.52
417.41
417.5
417.91
417.8
417.89
417.82
417.88
418.08
417.9
418.06
418.16
418.32
418.18
418.06
418.4
418.6
418.43
418.33
418.65
418.63
418.4
418.36
418.39
418.61
418.17
418.56
418.22
418.26
418.48
418.28
418.45
418.31
418.44
418.32
418.42
418.34
418.16
418.32
418.42
418.33
418.41
418.35
418.64
418.64
418.63
418.65
418.63
418.9
418.66
418.87
419.17
418.91
418.89
419.16
419.16
418.92
419.12
419.2
419.13
419.2
419.13
419.2
419.13
419.44
419.17
419.41
419.45
419.41
419.44
419.41
419.69
419.94
419.72
420.16
420.04
420.13
420.31
420.14
420.54
420.19
420.25
420.2
420.49
420.73
420.52
420.7
420.8
420.71
420.79
420.96
421.07
420.97
421.06
420.98
421.05
420.99
421.05
421.24
421.32
421.25
421.31
421.5
421.59
421.51
421.34
421.24
421.57
421.53
421.32
421.5
421.6
421.51
421.59
421.52
421.58
421.53
421.57
421.53
421.56
421.54
421.56
421.54
421.55
421.55
421.3
421.27
421.29
421.52
421.32
421.25
421.56
421.54
421.31
421.26
421.3
421.27
421.05
421.24
421.32
421.25
421.07
421.22
421.34
421.24
421.33
421.49
421.35
421.47
421.62
421.49
421.6
421.5
421.59
421.76
421.87
421.53
421.57
421.78
421.84
422.04
422.12
422.3
422.39
422.32
422.13
422.29
422.4
422.55
422.43
422.28
422.41
422.3
422.39
422.31
422.38
422.33
422.37
422.34
422.36
422.59
422.39
422.57
422.66
422.58
422.65
422.59
422.89
422.89
422.63
422.61
422.87
422.65
422.83
422.94
422.84
423.19
422.88
423.15
423.41
423.19
423.12
423.44
423.41
423.69
423.45
423.65
423.73
423.66
423.47
423.63
424
423.93
423.99
423.93
423.99
423.94
423.98
423.94
423.98
423.95
423.97
423.95
423.97
423.7
423.93
423.99
423.94
423.74
423.9
424.02
423.66
423.97
423.95
423.97
423.96
423.72
423.92
424
423.68
423.96
423.72
423.67
423.96
423.96
423.72
423.92
423.75
423.89
423.78
423.86
424.06
423.62
423.76
423.63
423.75
423.64
423.74
423.9
424.02
423.91
423.76
423.88
424.03
423.9
424.02
423.91
424.01
424.17
424.04
423.89
424.02
424.16
424.05
424.14
424.32
424.16
424.05
423.88
424.03
424.15
424.05
424.13
424.07
423.87
424.3
424.18
424.28
424.19
424.26
424.21
424.25
424.22
423.99
424.19
424.26
423.96
424.21
424.25
424.21
424.51
424.24
424.23
424.48
424.27
424.19
424.53
424.48
424.53
424.22
424.5
424.51
424.25
424.21
424.51
424.5
424.51
424.24
424.23
424.49
424.27
424.2
424.27
424.2
424.26
424.2
424.26
424.21
424.26
424.21
424.26
424.21
424.25
423.96
424.21
424.25
424.47
424.28
424.18
424.28
424.44
424.56
424.45
424.55
424.46
424.54
424.46
424.54
424.47
424.53
424.73
424.82
424.73
424.56
424.7
424.84
424.71
424.83
424.72
424.82
424.73
424.56
424.7
424.84
424.71
424.57
424.69
424.6
424.42
424.83
424.72
424.82
424.48
424.77
424.77
424.77
425.03
425.05
425.04
425.3
425.33
425.05
425.04
425.3
425.33
425.04
425.05
425.29
425.34
425.04
425.05
425.29
425.34
425.29
425.09
425.26
425.37
425.26
425.11
424.98
425.1
425.24
425.13
424.96
425.12
425.23
425.4
425.24
425.39
425.25
425.63
425.3
425.58
425.34
425.29
425.34
425.54
425.63
425.54
425.63
425.55
425.62
425.8
425.66
425.77
426.19
425.82
426.15
426.11
426.15
426.11
426.14
426.37
426.18
426.08
426.43
426.38
426.68
426.42
426.64
426.71
426.65
426.7
426.65
426.95
426.94
426.95
427.2
427.75
427.79
427.76
428.04
428.31
428.33
428.31
428.33
428.31
428.59
428.35
428.3
428.34
428.55
428.63
428.56
428.63
428.57
428.37
428.53
428.65
428.54
428.39
428.51
428.67
428.53
428.4
428.5
428.68
428.52
428.67
428.79
428.95
429.06
428.97
428.78
428.95
429.06
428.97
428.78
429.21
429.09
428.94
428.81
428.92
428.83
428.65
428.81
428.93
428.82
428.66
428.8
428.93
428.82
428.66
428.8
428.94
428.82
428.66
428.79
428.68
428.78
428.95
428.8
428.93
428.82
428.66
428.8
428.93
428.82
428.91
429.09
429.19
429.11
428.92
429.09
429.2
429.11
429.18
429.12
429.42
429.43
429.16
429.4
429.44
429.41
429.17
429.64
429.23
429.33
429.51
429.35
429.49
429.63
429.51
429.35
429.49
429.37
429.47
429.38
429.46
429.66
429.74
429.67
429.98
429.98
429.72
429.95
430
430.22
430.03
430.19
430.31
430.46
430.34
430.44
430.61
430.46
430.34
430.44
430.62
430.46
430.6
430.74
430.88
431.01
430.9
430.73
430.88
431.27
431.2
431.25
431.21
431.5
431.52
431.49
431.79
431.78
432.06
431.81
432.03
432.36
432.34
432.35
432.35
432.6
432.66
432.34
432.88
432.93
432.89
432.66
432.86
432.95
432.87
432.94
433.14
433.23
433.15
433.22
433.16
433.21
433.17
433.21
433.18
433.2
433.18
433.2
433.71
433.53
433.42
433.52
433.43
433.51
433.44
433.5
433.71
433.53
433.42
433.26
433.65
433.32
433.33
433.34
433.58
433.65
433.31
433.36
433.56
433.67
433.29
433.37
433.55
433.68
433.29
433.38
433.29
433.64
433.32
433.61
433.36
433.57
433.39
433.55
433.67
433.56
433.4
433.53
433.69
433.29
433.63
433.6
433.63
433.61
433.62
433.87
433.92
433.88
433.65
433.58
433.64
433.85
433.67
433.82
433.96
433.57
433.65
433.84
433.95
433.85
433.67
433.82
433.97
433.83
433.95
434.11
434.24
434.12
434.23
434.13
434.22
434.4
434.25
434.37
434.54
434.65
434.57
434.37
434.55
434.38
434.53
434.4
434.52
434.68
434.54
434.39
434.53
434.67
434.55
434.38
434.8
434.7
434.52
434.68
434.81
434.69
434.53
434.67
434.81
434.69
434.53
434.4
434.78
434.72
434.77
434.47
434.72
434.78
434.45
434.74
434.74
434.48
434.17
434.45
434.47
434.72
434.24
434.13
434.22
434.41
434.25
434.12
434.23
434.13
433.95
434.11
434.24
434.12
433.96
433.84
434.21
434.15
433.94
433.86
434.19
433.91
433.88
434.18
433.91
434.15
433.94
434.12
433.97
434.1
433.99
434.07
434.27
433.83
433.95
434.11
434.24
434.13
433.96
434.1
434.25
433.86
433.93
433.87
433.92
433.88
433.91
433.89
434.16
434.2
433.9
433.9
434.15
434.2
433.89
434.17
434.19
434.17
433.92
434.14
434.21
434.15
433.94
434.12
434.23
433.87
434.18
434.18
434.18
434.18
434.18
434.18
434.17
434.19
434.17
434.19
434.17
434.19
434.17
434.45
434.21
434.15
434.2
434.42
434.5
434.43
434.23
434.13
434.22
434.4
434.25
434.11
434.24
434.39
434.27
434.1
434.25
434.38
434.28
434.09
434.26
434.37
434.28
434.35
434.57
434.1
434.25
434.38
434.53
434.14
434.48
434.45
434.47
434.46
434.2
434.43
434.49
434.44
434.48
434.45
434.47
434.45
434.2
434.42
434.23
434.4
434.26
434.37
434.54
434.13
434.22
434.41
434.25
434.12
433.97
434.1
434.25
434.11
433.97
433.83
434.22
434.15
433.94
434.12
434.23
434.14
433.95
434.11
434.24
434.13
433.96
433.84
434.2
434.16
433.93
433.87
434.18
434.18
434.17
434.19
433.9
434.16
433.93
434.13
434.22
434.14
434.21
434.15
434.2
433.9
434.15
434.21
434.41
434.51
434.15
434.47
434.45
434.21
434.15
434.47
434.45
434.47
434.19
434.44
434.48
434.18
434.44
434.48
434.44
434.48
434.44
434.22
434.41
434.51
434.41
434.51
434.42
434.5
434.43
434.49
434.43
434.22
434.4
434.51
434.41
434.5
434.42
434.49
434.43
434.49
434.44
434.48
434.71
434.51
434.42
434.76
434.47
434.45
434.47
434.45
434.74
434.48
434.44
434.74
434.75
434.73
434.49
434.69
434.53
434.39
434.53
434.4
434.26
434.63
434.59
434.6
434.61
434.58
434.63
434.57
434.91
434.33
434.85
434.65
434.83
434.67
434.81
434.95
434.84
434.66
434.82
434.68
434.8
434.7
434.79
434.71
434.77
434.72
434.76
434.73
434.75
434.74
434.74
434.75
434.73
434.76
434.73
434.77
434.72
434.77
434.72
434.77
434.71
434.78
434.71
434.78
434.97
434.82
434.67
434.81
434.68
435.07
434.72
435.03
434.76
435
434.79
434.7
434.78
434.71
434.77
434.72
434.77
434.99
434.8
434.7
434.79
434.71
434.78
434.98
434.81
434.95
434.83
434.66
434.82
434.68
434.8
434.69
434.79
434.97
434.82
434.68
435.07
434.73
434.75
434.74
435.01
434.78
434.71
435.04
435.01
434.78
434.97
435.08
434.98
435.08
434.98
435.07
434.99
435.07
434.99
435.06
435
435.06
434.74
435.01
435.04
435.28
435.08
434.98
435.07
435.25
435.37
435.26
435.36
435.53
435.39
435.5
435.69
435.51
435.67
435.26
435.62
435.57
435.62
435.58
435.61
435.58
435.61
435.59
435.61
435.85
435.91
435.6
435.86
435.64
435.82
435.94
435.83
435.93
435.84
435.66
435.54
435.65
435.55
435.64
435.55
435.64
435.83
435.67
435.8
435.96
435.81
435.68
435.79
435.71
435.76
435.72
435.75
435.74
435.73
435.75
435.45
435.99
435.52
435.66
435.8
435.95
435.56
435.63
435.57
435.88
435.62
435.57
435.89
435.87
436.16
435.9
435.87
436.16
436.18
435.88
436.15
436.18
436.42
436.21
436.4
436.24
436.37
436.26
436.35
436.54
436.64
436.83
436.39
436.77
436.71
436.76
436.73
436.75
436.74
436.47
436.71
436.77
436.72
436.49
436.69
436.78
436.7
436.5
436.41
436.76
436.73
436.48
436.43
436.74
436.74
436.46
436.71
436.49
436.68
436.52
436.39
436.51
436.67
436.53
436.65
436.82
436.66
436.54
436.64
436.56
436.62
436.84
436.64
436.82
436.66
436.54
436.64
436.82
436.66
436.8
436.68
436.79
436.7
436.77
436.98
436.8
436.68
436.78
436.7
437.04
436.75
436.72
436.76
436.72
436.76
436.71
436.76
436.71
436.77
436.71
437.03
436.75
436.73
436.48
436.7
436.78
436.71
436.77
436.71
437.03
437.29
436.79
436.95
437.09
437.23
437.12
436.94
437.1
436.96
437.09
436.97
437.07
437.25
437.1
436.96
437.09
437.24
437.11
436.95
437.1
436.96
436.81
436.94
437.1
437.22
437.12
436.94
437.37
436.99
437.05
437
437.31
437.32
437.03
437.29
437.33
437.3
437.06
437
437.31
437.05
437
437.05
437
437.32
436.77
436.98
437.07
436.99
436.79
436.69
437.05
436.74
436.73
436.75
437
436.79
436.69
436.78
436.69
436.78
436.7
436.51
436.4
436.77
436.44
436.46
436.44
436.73
436.48
436.69
436.52
436.66
436.54
436.63
436.84
436.38
436.52
436.39
436.51
436.67
436.53
436.38
436.52
436.39
436.51
436.4
436.5
436.41
436.49
436.42
436.48
436.43
436.21
436.4
436.23
436.37
436.26
436.08
436.51
436.14
436.19
436.41
436.22
436.12
435.94
436.09
436.23
436.11
435.95
435.82
435.94
436.1
435.96
435.81
435.95
435.83
435.66
435.8
435.95
435.82
435.67
435.8
435.95
435.82
435.67
435.53
435.92
435.85
435.64
435.83
435.93
435.84
435.65
435.55
435.63
435.83
435.39
435.51
435.68
435.53
435.13
435.21
435.14
435.19
434.89
434.88
434.9
434.87
434.91
435.13
435.48
435.17
435.44
435.2
435.41
434.96
435.08
434.99
435.06
434.74
434.48
434.72
434.76
434.47
434.18
433.92
433.87
433.66
433.3
433.1
432.73
432.81
431.95
431.65
431.12
431.33
430.89
430.49
430.31
429.69
429.19
428.6
428.34
427.8
427.23
426.96
426.68
426.42
426.38
426.17
425.84
425.62
425.04
424.79
424.5
424.5
424
423.93
423.74
423.9
423.77
423.63
423.75
423.64
423.49
423.36
423.73
423.66
423.48
423.63
423.75
423.89
423.78
423.86
424.05
424.13
424.32
424.4
424.6
424.42
424.58
424.94
425.14
425.21
425.16
425.19
425.68
425.5
425.41
425.23
425.9
425.83
425.89
426.34
426.45
426.61
426.73
427.14
427.04
427.12
427.32
427.4
427.84
427.71
427.82
427.98
428.36
428.29
428.34
428.56
428.62
428.57
428.61
428.59
428.6
428.85
428.89
428.86
428.88
428.87
429.12
429.17
429.12
428.92
429.08
429.47
429.38
429.73
429.42
429.69
429.96
430.25
430
430.22
430.29
430.23
430.28
430.23
430.53
430.54
430.27
430.5
430.3
430.47
430.59
430.48
430.58
430.75
430.86
430.76
431.11
431.07
431.11
431.34
431.4
431.34
431.13
431.31
431.42
431.33
431.15
431.04
431.14
431.31
431.16
431.02
431.15
431.04
431.14
431.57
431.72
431.32
431.41
431.07
430.84
430.53
430.8
431.09
431.09
431.09
431.09
431.09
431.34
431.39
431.34
431.39
431.6
431.69
431.61
431.69
431.87
432.24
431.92
431.94
432.18
432.24
431.92
432.2
431.96
432.42
432.29
432.13
432.54
432.44
432.27
432.15
432.26
432.16
431.99
432.13
432.28
432.41
432.3
432.38
432.59
432.66
432.61
432.38
432.85
432.7
432.57
432.41
432.56
432.43
432.54
432.7
432.57
432.42
432.55
432.7
432.57
432.15
432.51
432.47
432.5
432.48
432.49
432.49
432.23
432.46
432.51
432.47
432.5
432.48
432.49
432.49
432.23
432.46
432.52
432.47
432.51
432.22
432.2
432.22
432.19
431.96
431.89
432.23
431.93
431.93
431.92
431.93
431.66
432.16
431.99
431.87
431.98
431.88
431.97
431.89
431.96
431.9
431.69
431.61
431.68
431.88
431.45
431.56
431.47
431.28
431.19
431.26
431.47
431.28
431.19
431.26
431.21
430.72
431.15
431.04
430.88
431.01
430.9
430.73
430.62
430.46
430.34
430.18
430.32
430.2
430.05
429.92
430.03
429.68
429.72
429.43
429.41
429.69
429.45
429.41
429.18
429.12
428.91
429.1
428.93
428.56
428.88
428.87
428.62
428.58
428.35
428.3
428.34
428.3
428.08
428.02
428.07
428.03
427.8
427.74
427.54
427.72
427.56
427.44
427.29
427.16
427.03
426.88
427.01
426.64
426.7
426.65
426.44
426.37
425.92
426.05
425.95
425.78
425.68
425.51
425.4
424.98
425.1
425
424.83
424.72
424.56
424.45
424.3
423.92
423.74
423.65
423.73
423.41
423.43
423.17
422.89
422.89
422.63
422.61
422.63
422.36
422.09
422.08
422.08
421.84
421.79
421.59
421.51
421.59
421.02
420.77
420.98
420.81
420.45
420.52
420.45
420.27
419.93
419.74
419.65
419.48
419.13
419.2
419.14
418.94
418.62
418.66
418.62
418.41
418.1
417.88
417.83
417.87
417.59
417.34
417.56
417.37
417.04
416.6
416.49
416.59
416.26
416.06
415.99
415.57
415.69
415.35
415.16
415.09
414.9
414.83
414.4
414.3
414.14
414.04
413.89
413.78
413.63
413.52
413.14
413.23
413.15
412.98
412.66
412.69
412.43
412.41
412.2
411.89
411.93
411.65
411.43
411.38
411.2
410.87
410.69
410.36
410.42
410.12
409.92
409.85
409.92
409.38
409.38
409.15
408.89
408.64
408.62
408.64
408.39
408.13
407.9
407.86
407.9
407.4
407.6
407.43
407.11
406.93
406.62
406.42
406.36
406.19
405.87
405.92
405.64
405.42
405.38
405.19
404.9
404.69
404.64
404.46
404.15
403.96
403.67
403.7
403.67
403.24
402.92
402.97
402.93
402.52
402.19
402.02
402.16
401.82
401.65
401.58
401.19
400.86
400.68
400.4
400.41
400.19
399.69
399.91
399.49
399.19
399
399.17
398.79
398.46
398.3
398
397.81
397.76
397.36
397.26
396.9
396.78
396.44
396.51
396.24
395.81
395.74
395.58
395.29
395.1
394.83
395.05
395.09
394.83
394.85
394.61
394.6
394.16
394.11
393.94
393.66
393.24
393.17
393.02
392.72
392.33
392.24
392.1
391.79
391.41
391.31
391.19
390.87
390.5
390.39
390.27
390.16
389.62
389.24
389.36
389.04
388.68
388.57
388.24
388.1
387.81
387.43
387.13
386.97
386.69
386.09
386.19
385.69
385.08
384.78
384.62
384.35
383.96
383.89
383.33
382.99
382.67
381.92
381.55
381.26
380.9
380.41
379.82
379.52
379.17
378.67
378.1
377.79
377.06
376.5
376
375.44
374.74
374.36
373.91
373.31
372.86
372.28
372.01
371.46
371.17
370.65
370.14
369.44
368.9
368.41
368.45
367.86
367.41
367.24
367.19
367.05
366.6
366.44
366.19
366.22
366
365.82
365.6
365.8
365.81
365.99
365.83
366.15
366.25
366.54
366.67
367.12
367.68
368.32
368.92
369.15
369.91
370.4
370.75
371.4
372
372.25
373.01
373.13
373.61
373.97
374.24
374.4
374.85
374.86
375.04
375.28
375.07
375.26
375.29
375.66
375.74
375.87
375.95
376.07
376.17
376.28
376.38
376.1
375.95
375.88
375.74
375.66
375.54
375.45
375.33
374.84
374.67
374.42
374.44
374.23
374.02
373.82
373.79
373.63
373.37
373.21
373.14
372.82
372.31
372.18
371.9
371.76
371.3
371.31
371.1
370.71
370.28
370.27
369.9
369.83
369.32
368.99
368.9
368.6
368.3
368.17
368.1
367.58
367.46
367.19
367.05
366.98
366.67
366.55
366.47
366.35
366.27
366.15
366.26
365.78
365.82
365.79
365.82
365.8
365.62
365.59
365.43
365.38
365.05
364.77
364.64
364.2
364.02
363.81
363.62
363.23
363.01
363.02
362.64
362.42
362.06
362.01
362.05
361.83
361.47
361.23
361.07
360.67
360.29
360.07
359.53
359.27
358.78
358.13
357.97
357.57
357.2
356.98
356.46
355.67
355.29
354.92
354.36
353.96
353.25
352.65
352.13
351.36
350.47
349.53
348.63
347.71
346.81
346.07
345.37
344.98
344.32
344.22
343.98
343.19
342.73
342.31
342.01
341.94
341.84
341.43
341.3
341.41
341.32
341.24
341.31
341.08
340.79
340.55
340.11
339.84
339.75
339.67
339.9
339.7
339.23
339.15
339.06
338.66
338.85
338.85
338.68
338.67
338.52
338.49
338.35
338.31
338.18
338.13
338.18
338.14
338.01
338.12
338.19
338.13
338.18
338.14
338.33
338.33
338.17
338.31
338.51
338.34
338.32
338.34
338.32
338.18
337.98
338.16
337.84
337.95
337.86
337.78
337.85
337.79
337.68
337.77
338.02
337.8
337.99
338.15
338.33
338.33
337.85
337.63
337.34
337.11
336.83
336.75
336.67
336.74
336.68
336.57
336.67
336.42
336.48
336.58
336.65
336.75
336.83
336.76
336.98
336.95
336.97
337.11
336.99
337.09
337.16
337.26
337.5
337.45
337.49
337.62
337.51
337.76
337.7
337.75
337.87
337.76
337.86
337.93
338.19
338.13
338.02
338.11
338.36
338.31
338.35
338.47
338.68
338.82
338.7
338.65
338.85
338.84
338.85
339
339.03
338.85
338.84
339.01
339.02
339.18
338.88
339.14
339.24
339.31
339.09
339.11
339.26
339.13
339.09
338.96
339.07
339.13
339.08
339.12
339.25
339.3
339.1
338.94
339.24
339.14
339.23
339.32
339.4
339.49
339.41
339.48
339.59
339.33
339.55
339.53
339.54
339.53
339.37
339.36
339.37
339.52
339.38
339.35
339.37
339.19
339.18
339.2
339.18
339.2
339.18
339.04
338.99
339.04
338.99
339.04
338.99
338.88
338.81
338.88
338.81
338.88
338.82
338.87
338.82
338.87
338.82
338.87
338.83
338.86
338.67
338.68
338.51
338.65
338.53
338.63
338.39
338.43
338.41
338.42
338.42
338.24
338.25
338.07
338.24
338.09
338.06
337.91
338.05
337.93
337.88
337.75
337.87
337.77
337.7
337.75
337.87
337.76
337.7
337.75
337.87
337.76
337.86
337.78
338.01
338.13
338.18
338.14
338.17
338.3
338.35
338.63
338.71
338.96
338.9
338.95
339.24
339.15
339.38
339.35
339.54
339.54
339.53
339.54
339.53
339.55
339.52
339.71
339.7
339.72
339.54
339.7
339.72
339.7
339.71
339.71
339.39
339.34
339.22
339.17
339.21
339.33
339.39
339.34
339.38
339.35
339.38
339.35
339.53
339.54
339.53
339.54
339.69
339.73
339.69
339.73
339.69
339.89
339.87
340.05
340.22
340.4
340.4
340.56
340.59
340.73
340.77
340.73
340.93
340.92
340.93
341.08
341.11
341.09
341.11
341.09
341.11
340.93
340.59
340.72
340.62
340.86
341.14
341.22
341.32
341.23
341.31
341.24
341.31
341.24
341.3
341.25
341.46
341.44
341.46
341.44
341.45
341.44
341.61
341.63
341.78
342.15
341.99
342.12
342.34
342.48
342.36
342.3
342.68
342.68
342.68
342.68
342.84
343.03
343.03
343.03
343.19
343.22
343.19
343.22
343.36
343.57
343.71
343.76
343.88
344.11
344.08
344.27
344.1
344.08
344.27
344.27
344.27
344.11
344.24
344.46
344.27
344.27
344.27
344.43
344.46
344.44
344.79
344.82
344.79
344.98
345.15
345
344.96
345.17
345.15
345.17
345.32
345.69
345.71
345.69
345.71
345.86
345.9
345.86
346.06
345.88
346.04
346.07
346.04
346.24
346.23
346.07
346.21
346.09
346.36
346.3
346.34
346.48
346.52
346.66
346.7
347.18
347.1
347.17
347.27
347.36
347.45
347.54
347.63
347.89
347.83
347.89
347.84
347.88
348.02
347.9
348
348.08
348.18
348.27
348.36
348.45
348.37
348.61
348.58
348.6
348.75
348.79
348.93
348.98
349.11
349.16
349.29
349.35
349.3
349.34
349.3
349.5
349.68
349.52
349.66
349.71
349.84
349.73
349.82
350.09
350.2
350.1
350.18
350.29
350.2
350.27
350.21
350.27
350.39
350.28
350.37
350.3
350.36
350.31
350.35
350.66
350.39
350.45
350.4
350.61
350.78
350.63
350.76
350.82
350.77
350.81
350.78
350.97
351.15
350.99
351.13
351.18
351.14
351.18
351.32
351.37
351.5
351.38
351.48
351.57
351.67
351.59
351.65
351.77
351.67
351.59
351.65
351.77
351.84
351.61
351.63
351.8
351.82
351.8
351.81
351.98
352
351.99
351.99
352.17
352.19
352.18
352.18
352.36
352.37
352.54
352.39
352.69
352.61
352.5
352.6
352.69
352.79
352.7
352.6
352.68
352.79
352.7
352.78
352.88
352.79
352.87
352.81
352.85
352.99
352.87
352.98
353.23
353.19
353.04
353.17
353.41
353.39
353.23
353.19
353.39
353.4
353.21
353.21
353.2
353.39
353.22
353.19
353.39
353.23
353.01
353.2
353.04
353.01
352.85
352.99
353.05
353
352.69
352.78
352.71
352.59
352.35
352.21
352.34
352.22
352.15
352.03
352.14
351.87
351.93
351.88
351.92
351.71
351.89
352.26
352.28
352.27
351.93
351.87
351.93
351.54
351.35
351.34
351.18
350.97
350.8
350.61
350.43
350.41
350.26
350.22
350.08
349.86
349.54
349.47
349.53
349.31
349.16
349.12
349.16
349.12
348.81
348.74
348.98
348.77
348.61
348.58
348.6
348.75
348.62
348.56
348.45
348.54
348.63
348.55
348.63
348.56
348.62
348.57
348.78
348.77
348.61
348.74
348.8
348.92
348.99
348.93
348.98
349.1
349.17
349.28
349.35
349.29
349.35
349.47
349.36
349.62
349.57
349.44
349.73
349.82
349.75
349.81
349.93
349.99
349.94
349.98
350.12
349.99
350.11
350.18
350.12
350.34
350.32
350.33
350.5
350.52
350.34
350.32
350.51
350.17
350.3
350.19
350.11
350.18
349.95
349.8
350.1
349.85
349.72
349.83
349.9
349.85
349.89
350.03
349.9
350.02
349.91
350.01
350.1
350.19
350.11
350.18
350.12
350.34
350.32
350.34
350.5
350.36
350.48
350.37
350.46
350.39
350.45
350.57
350.63
350.76
350.64
350.75
350.83
350.76
350.82
350.77
350.98
350.81
350.77
350.81
350.94
351.01
350.77
350.99
350.96
350.99
350.79
350.97
350.98
351.15
351
351.13
351.02
351.11
351.21
351.12
351.37
351.33
351.19
351.31
351.38
351.31
351.03
350.93
351.02
351.11
351.04
351.09
351.22
351.11
351.04
351.09
351.22
351.28
351.24
351.26
351.42
351.28
351.41
351.46
351.42
351.45
351.6
351.47
351.76
351.51
351.55
351.69
351.74
351.7
351.73
351.7
351.73
351.71
351.72
351.71
351.72
351.55
351.51
351.38
351.49
351.23
351.27
351.59
351.47
351.76
351.33
351.53
351.53
351.71
351.55
351.51
351.72
351.71
351.72
351.89
351.92
351.89
351.91
352.06
352.11
352.07
351.93
351.87
352.1
352.08
351.75
351.86
351.94
352.04
351.96
351.85
351.95
352.03
352.14
352.04
352.13
352.22
351.98
352.01
352.16
351.85
351.95
351.86
351.94
351.87
351.76
351.85
351.95
351.86
351.76
351.67
351.93
351.71
351.38
351.32
351.37
351.33
351.19
351.14
351.18
351.15
350.83
350.93
350.84
350.57
350.63
350.75
350.65
350.57
350.64
350.58
350.46
350.56
350.47
350.55
350.66
350.39
350.28
350.38
350.29
350.02
350.08
350.03
350.07
349.87
349.87
349.53
349.64
349.56
349.28
349.36
349.28
349.36
349.11
349.16
349.11
349.16
348.94
348.97
348.94
348.97
348.94
348.97
348.77
348.94
348.8
348.92
348.82
348.56
348.79
348.76
348.78
348.76
348.78
348.77
348.78
348.77
348.61
348.74
348.63
348.55
348.62
348.73
348.81
348.74
348.64
348.55
348.63
348.38
348.6
348.58
348.6
348.76
348.62
348.57
348.61
348.57
348.61
348.74
348.63
348.55
348.62
348.56
348.62
348.57
348.61
348.57
348.61
348.75
348.63
348.56
348.62
348.73
348.81
348.74
348.8
348.58
348.77
348.78
348.77
348.78
348.77
348.78
348.77
348.78
348.76
348.78
348.76
348.95
348.79
348.93
348.81
348.91
348.83
348.89
348.84
348.54
348.3
348.33
348.48
348.35
348.29
348.33
348.48
348.35
348.29
348.17
348.28
348.35
348.12
348.14
348.3
347.99
348.09
348
348.08
347.85
348.04
348.05
348.21
348.25
348.03
348.06
348.2
348.25
348.2
348.25
348.37
348.11
348.15
348.3
348.16
348.29
348.16
348.28
348.34
348.47
348.18
348.44
348.38
348.43
348.38
348.43
348.39
348.43
348.39
348.42
348.39
348.42
348.4
348.59
348.59
348.42
348.4
348.58
348.6
348.58
348.6
348.58
348.6
348.58
348.6
348.58
348.6
348.58
348.6
348.75
348.63
348.9
348.84
348.88
349.03
348.89
349.02
348.9
349.18
349.27
349.2
349.08
349.36
349.28
349.35
349.12
349.32
349.32
349.15
349.12
349.32
349.32
349.32
349.49
349.34
349.3
349.51
349.33
349.48
349.19
349.43
349.4
349.25
349.39
349.43
349.58
349.27
349.37
349.44
349.39
349.26
349.38
349.27
349.37
349.28
349.19
349.26
349.38
349.44
349.56
349.45
349.55
349.63
349.74
349.64
349.9
349.85
349.89
349.86
349.88
349.86
350.05
350.06
350.04
350.07
350.21
350.26
350.04
350.24
350.24
350.41
350.26
350.39
350.45
350.4
350.44
350.41
350.61
350.61
350.43
350.59
350.45
350.57
350.47
350.38
350.46
350.56
350.65
350.4
350.61
350.43
350.41
350.6
350.44
350.58
350.28
350.37
350.47
350.38
350.29
350.36
350.47
350.38
350.29
350.36
350.48
350.37
350.29
350.19
350.28
350.37
350.3
350.19
350.45
350.39
350.27
350.21
350.44
350.24
350.23
350.42
350.42
350.25
350.05
350.23
350.24
350.41
350.26
350.22
350.26
350.56
350.3
350.35
350.31
350.34
350.32
349.99
350.11
350
349.93
349.82
349.92
349.83
349.73
349.82
349.92
349.83
349.73
349.82
349.92
349.83
349.91
349.84
350.07
349.87
349.86
349.88
349.86
349.88
349.69
349.69
349.68
349.69
349.68
349.7
349.68
349.87
349.7
349.68
349.87
349.88
349.86
349.88
350.03
349.9
349.84
349.9
350.01
350.27
349.87
350.04
350.24
350.24
350.07
350.04
350.23
350.58
350.28
350.37
350.64
350.57
350.47
350.55
350.83
350.93
350.85
350.74
351.01
350.94
351
350.95
351.17
351.15
351
350.96
351.16
351.16
350.99
351.14
351.01
351.12
351.2
351.12
351.37
351.33
351.19
351.13
351.01
351.29
351.23
351.1
351.04
351.26
351.08
351.05
351.43
351.1
351.22
351.11
351.38
351.32
351.2
351.3
351.38
351.31
351.2
351.13
351.19
351.14
351.01
351.12
351.2
351.13
351.19
351.14
351.18
351.15
351
351.13
351.36
351.34
351.18
351.32
351.37
351.33
351.36
351.34
351.35
351.51
351.37
351.5
351.56
351.51
351.38
351.49
351.57
351.5
351.56
351.68
351.57
351.67
351.59
351.65
351.77
351.67
351.59
351.65
351.77
351.67
351.59
351.66
351.77
351.67
351.58
351.66
351.77
351.67
351.58
351.83
351.79
351.82
351.8
351.81
351.98
351.83
351.79
351.82
351.8
351.82
351.98
351.84
351.79
352
351.99
352
352.17
352.02
351.98
351.84
352.13
351.88
351.92
351.89
352.25
352.12
351.88
352.28
352.27
352.28
352.09
352.09
352.08
352.44
352.3
352.25
352.29
352.26
352.11
352.07
352.1
352.25
352.12
352.06
352.11
352.07
351.93
351.88
351.75
351.86
351.77
351.84
351.61
351.81
351.64
351.43
351.62
351.1
351.38
351.14
351.18
351.32
351.19
351.13
351.19
350.8
350.61
350.43
350.41
350.26
349.87
349.87
349.53
349.49
349.18
349.1
349.17
349.11
348.82
348.9
348.84
348.38
348.27
348.02
347.73
347.47
346.85
346.71
346.34
346.15
345.98
345.61
345.61
345.11
345.21
344.95
344.84
344.6
344.15
343.88
343.94
343.72
343.58
343.38
343.39
343.22
343.03
343.03
342.86
343.01
342.88
342.83
342.71
342.49
342.35
342.31
342.18
342.29
342.19
342.11
342.02
341.93
342.17
341.97
341.98
341.81
341.46
341.44
341.29
341.1
340.78
340.73
340.61
339.9
339.54
339.53
339.21
339.17
339.21
339.18
339.2
338.86
338.51
338.49
338.35
338.31
338.34
338.32
338.34
338.32
338.02
337.96
338.01
338.13
338.03
338.11
338.2
338.12
338.35
338.47
338.69
338.98
339.05
339.15
339.39
339.5
339.57
339.67
339.74
339.84
339.76
339.82
340.09
340.02
340.09
340.03
340.24
340.22
340.23
340.39
340.58
340.74
340.76
340.91
340.94
340.91
340.94
341.08
341.12
341.25
341.14
341.23
341.31
341.24
341.31
341.25
341.3
341.25
341.29
341.26
341.29
341.26
341.12
341.24
341.46
341.44
341.29
341.26
341.45
341.45
341.29
341.43
341.47
341.6
341.65
341.77
341.99
341.96
341.82
342.1
342.19
342.11
342.18
341.96
342.15
342.31
342.17
342.13
342.16
342.3
342.18
342.28
342.36
342.46
342.54
342.63
342.72
342.64
342.55
342.62
342.72
342.64
342.71
342.64
342.87
342.84
342.7
342.99
343.23
343.02
343.04
343.19
343.05
343.17
343.07
343.16
343.25
343.17
343.24
343.18
343.4
343.37
343.55
343.73
343.9
344.26
344.28
344.43
344.46
344.6
344.65
344.77
345
345.14
345.18
345.31
345.37
345.48
345.55
345.66
345.57
345.64
345.75
345.82
345.93
345.67
345.89
346.2
346.27
346.54
346.64
346.72
346.83
346.9
347.01
347.08
347.19
347.09
347.18
347.1
347.17
347.28
347.35
347.46
347.53
347.47
347.52
347.65
347.71
347.66
347.7
347.67
347.52
347.82
347.73
347.64
347.72
347.82
347.73
347.8
347.92
347.82
347.73
347.8
347.75
347.79
347.76
347.61
347.91
347.65
347.87
347.86
348.03
347.38
347.09
347.19
347.09
347.35
347.29
347.35
347.29
347.35
347.29
347.52
347.48
347.52
347.48
347.35
347.63
347.73
347.47
347.7
347.66
347.7
347.66
347.7
347.5
347.67
347.52
347.48
347.52
347.65
347.54
347.63
347.56
347.44
347.55
347.45
347.55
347.62
347.56
347.44
347.72
347.47
347.52
347.65
347.54
347.63
347.56
347.61
347.74
347.62
347.73
347.63
347.72
347.81
347.91
347.82
347.9
347.83
347.89
347.84
347.88
347.67
347.85
347.87
347.85
347.87
347.85
347.88
347.85
347.88
347.85
348.05
348.21
348.41
348.74
349.31
349.5
349.34
349.47
349.7
349.67
349.7
349.67
349.7
349.67
349.7
349.67
349.7
349.67
349.7
349.68
349.7
349.68
349.7
349.51
349.5
349.68
349.53
349.48
349.69
349.68
349.69
349.51
349.67
349.71
349.67
349.53
349.48
349.7
349.5
349.5
349.5
349.67
349.7
349.5
349.5
349.5
349.5
349.5
349.33
349.48
349.53
349.48
349.35
349.46
349.54
349.47
349.36
349.28
349.53
349.31
349.33
349.32
349.32
349.32
349.32
349.15
349.3
349.17
349.1
349.17
349.28
349.36
349.11
349.33
349.31
349.33
349.14
349.14
349.14
349.31
349.16
349.28
349.35
349.29
349.35
349.29
349.17
349.27
349.36
349.28
349.53
349.48
349.35
349.29
349.52
349.32
349.32
349.5
349.51
349.67
349.36
349.45
349.55
349.46
349.54
349.47
349.36
349.45
349.38
349.44
349.39
349.42
349.41
349.41
349.58
349.6
349.59
349.59
349.6
349.59
349.61
349.41
349.76
349.45
349.55
349.64
349.73
349.82
349.57
349.62
349.75
349.8
349.76
349.62
349.91
349.84
349.73
349.66
349.71
349.84
349.9
349.85
349.88
349.86
349.87
349.87
349.87
350.05
350.06
350.06
349.88
350.04
350.07
350.05
350.06
350.22
350.08
350.04
350.07
350.22
350.09
350.2
350.1
350.18
350.11
350.34
350.32
350.16
350.3
350.35
350.14
350.32
350.35
350.14
350.33
350.33
350.5
350.35
350.49
350.37
350.47
350.38
350.46
350.39
350.44
350.58
350.29
350.37
350.47
350.38
350.46
350.56
350.47
350.55
350.65
350.57
350.64
350.75
350.83
350.93
350.67
350.72
351.02
350.94
350.84
350.92
351.19
351.31
351.21
351.12
351.19
351.13
351.18
351.14
351.35
351.18
351.14
351.35
351.51
351.55
351.34
351.36
351.16
351.33
351.35
351.51
351.55
351.69
351.57
351.67
351.76
351.85
351.77
351.67
351.93
351.7
351.73
351.71
351.72
351.88
351.75
351.86
351.94
351.7
351.73
351.88
351.75
351.86
351.94
351.87
351.93
351.87
351.93
352.05
351.95
352.21
352.16
352.02
352.15
352.21
352.16
352.19
352.17
352.18
352.18
352.35
352.39
352.34
352.39
352.34
352.57
352.36
352.55
352.38
352.53
352.4
352.51
352.42
352.5
352.6
352.68
352.79
352.69
352.78
352.7
352.77
352.71
352.76
352.72
352.76
352.73
352.75
352.91
352.77
352.89
352.61
352.85
352.83
352.83
353.01
352.68
352.8
352.86
352.81
352.68
352.62
352.84
352.66
352.46
352.47
