708.76
708.42
708.94
709.34
709.42
708.92
709.14
709.17
708.93
708.92
708.93
709.14
709.17
708.71
708.68
708.71
708.68
708.5
708.23
708.04
708.41
708.09
707.93
707.87
707.7
707.64
707.69
707.87
707.49
707.4
707.05
706.93
707.03
706.74
706.77
706.75
706.76
706.76
706.54
706.53
706.53
706.54
706.52
706.75
706.54
706.52
706.54
706.74
706.56
706.29
706.31
706.51
706.12
706.24
705.93
706.41
706.43
705.97
705.95
705.96
706.17
705.77
705.7
705.76
705.5
705.08
705.03
705.07
705.04
704.43
704.33
704.41
704.35
703.98
703.88
703.75
703.86
703.76
703.85
703.99
703.66
703.52
703.64
704.16
704.14
703.94
703.91
703.72
704.1
703.98
704.08
704
704.07
704.01
704.06
704.23
704.5
704.48
704.28
704.88
704.78
704.86
704.8
705.06
705.05
704.84
705.24
704.89
705.19
705.15
704.97
705.55
705.47
705.33
705.45
705.56
705.89
705.81
705.87
706.04
706.31
706.08
706.27
706.54
706.3
706.3
706.29
706.52
706.53
706.53
706.31
706.5
706.55
706.3
706.3
706.73
706.36
706.25
706.34
706.48
706.58
706.49
706.56
706.71
706.59
706.48
706.36
706.67
706.62
706.44
706.6
706.46
706.8
706.51
706.55
706.51
706.75
706.76
706.54
706.95
707.01
706.75
706.76
707.18
707.24
707.19
707.02
707.16
707.47
707.2
707.43
707.88
707.49
707.61
707.51
707.8
707.77
707.58
707.75
707.81
707.98
707.61
707.72
707.62
707.71
707.64
707.48
707.4
707.68
707.66
707.46
707.85
707.73
707.83
707.96
708.27
708.22
708.25
708.44
708.49
708.67
708.51
708.44
708.71
708.69
708.48
708.67
708.5
708.44
708.28
708.42
708.72
708.67
708.29
708.41
708.52
708.85
708.57
708.38
708.33
708.37
708.56
708.39
708.54
708.4
708.31
708.18
708.29
707.77
708.01
708.23
708.03
708.42
708.29
708.4
708.52
708.21
708.27
708.22
708.47
708.47
708.26
708.44
708.49
708.87
708.54
708.4
708.74
708.87
708.55
708.4
708.32
708.59
708.15
708.09
708.37
707.91
708.1
707.93
708.3
708.19
708.07
707.96
708.05
708.4
708.1
707.93
708.08
708.38
708.12
708.12
707.92
708.09
708.16
708.09
708.59
707.93
708.08
708.38
708.54
708.4
708.1
708.15
708.53
708.42
708.08
708.16
708.31
708.4
707.89
708.11
708.35
708.14
708.11
708.14
707.9
708.1
708.15
708.1
708.36
708.13
707.9
707.89
707.9
707.89
707.9
707.89
707.9
707.89
707.69
707.65
707.48
707.19
707.65
707.47
707.84
707.53
707.36
707.3
707.13
707.5
707.38
707.28
707.36
707.3
707.13
707.29
706.93
707.03
707.15
707.05
707.34
707.11
706.87
707.09
707.1
707.1
706.88
706.87
707.29
707.36
707.08
707.33
707.31
707.55
707.13
707.07
707.54
707.57
707.11
707.3
707.56
707.55
707.34
707.31
707.76
707.59
707.31
707.56
707.34
707.74
707.61
707.72
707.84
707.73
707.83
707.95
708.07
707.53
707.79
708.2
708.06
707.97
707.84
707.73
708.04
708.19
707.86
707.71
708.06
707.97
707.84
707.94
707.86
707.5
707.6
707.72
707.84
707.52
707.16
707.47
707.42
707.24
707.2
707.01
707.39
707.27
707.17
707.25
707.39
707.26
706.96
706.79
707.15
707.26
706.96
706.79
706.73
706.99
706.77
706.95
706.81
706.49
706.35
706.04
706.11
705.83
705.87
706.04
705.9
705.79
705.9
705.8
706.1
705.62
705.83
705.86
706.04
705.68
705.78
705.91
706
705.93
705.77
705.71
705.75
705.94
705.76
705.72
705.74
705.94
705.55
705.69
705.56
705.68
705.57
705.67
705.79
705.27
705.5
705.73
705.73
705.75
705.5
705.51
705.71
705.76
705.49
705.53
705.69
705.78
705.48
705.96
705.54
705.9
705.8
705.89
706.03
705.9
706.01
706.13
706.03
705.9
706.01
706.13
706.24
706.14
706.02
706.33
706.28
706.32
706.29
706.52
706.75
706.33
706.49
706.56
706.93
706.61
706.67
707.26
706.96
707
706.98
706.99
707.41
706.83
707.12
707.08
707.11
707.3
706.92
707.04
707.37
706.87
707.08
707.33
707.32
707.33
707.1
707.31
707.34
707.1
707.09
707.1
707.3
707.14
707.06
707.56
707.33
707.53
707.36
707.51
707.6
707.73
707.62
707.71
707.64
707.69
707.65
707.67
707.88
707.48
707.83
707.95
707.85
707.51
707.81
707.76
707.8
707.77
707.79
707.99
708.03
708
707.81
708.18
708.29
707.98
708.04
708.2
708.48
708.45
708.27
708.43
708.5
708.44
708.49
708.66
708.73
708.88
708.96
709.11
708.98
709.3
709.03
709.04
709.26
709.06
709.24
709.08
709.22
709.1
708.78
708.63
708.97
708.89
708.96
708.9
708.73
708.88
708.75
708.86
708.98
708.88
708.97
708.68
708.71
708.9
708.73
708.88
708.75
708.86
708.98
708.88
708.97
708.89
708.95
708.9
708.94
708.7
708.9
709.16
708.93
708.93
708.92
709.14
709.16
708.94
708.7
709.13
709.18
709.13
709.17
709.14
709.16
709.36
709.19
709.55
709.67
709.78
709.69
709.55
709.89
709.59
709.63
709.6
709.62
709.82
709.65
709.37
709.82
709.65
709.58
709.65
709.58
709.86
709.61
709.62
709.82
709.86
709.82
709.86
709.83
710.07
709.86
710.04
710.1
710.26
710.13
710.02
710.33
710.06
710.08
710.28
710.11
710.25
710.35
710.26
710.56
710.3
710.31
710.51
710.34
710.27
710.33
710.49
710.79
710.31
710.29
710.31
710.29
710.53
710.32
710.5
710.35
710.26
710.34
710.26
710.34
710.27
710.54
710.52
710.11
710.25
710.14
710.02
709.91
709.99
710.15
709.79
709.89
710.02
710.12
709.81
709.87
709.61
710.04
709.67
709.77
709.91
709.78
709.91
709.78
709.9
709.58
709.44
709.76
709.92
709.77
709.91
709.78
709.9
709.58
709.86
710.04
709.89
709.8
709.88
709.81
709.88
709.81
709.66
709.79
709.68
709.98
709.94
709.75
709.93
710.2
710.19
710.19
709.98
709.93
710.2
709.96
710.39
710.23
710.37
710.46
710.38
710.23
710.15
710.22
710.59
710.27
710.11
710.04
710.31
710.3
709.87
710.25
710.35
710.27
709.9
709.79
710.1
710.27
709.9
710.01
709.92
709.78
709.47
709.52
709.91
709.58
709.43
709.56
709.66
709.79
709.46
709.53
709.68
709.55
709.45
709.33
709.64
709.59
709.42
709.79
709.89
709.59
709.63
709.82
709.86
710.04
709.67
709.78
710.11
710.04
709.88
710.24
710.14
710.23
710.16
710.21
710.38
710.66
710.42
710.62
710.89
710.44
710.62
710.46
710.38
710.66
710.64
710.23
710.8
710.74
710.78
710.75
710.99
710.79
710.52
710.98
711
710.99
710.78
710.75
710.99
711
710.77
710.98
711.01
711.41
711.06
711.15
711.08
711.13
711.31
711.15
711.51
711.62
711.74
712.07
712.43
712.55
712.45
712.53
712.68
712.98
712.51
712.69
712.98
712.93
712.99
712.71
713.18
712.98
713.16
713.01
713.35
713.49
713.36
713.04
713.32
713.51
713.55
713.53
713.54
713.75
713.57
713.51
713.55
713.96
713.82
713.72
713.81
714.17
713.86
713.91
714.3
714.17
714.29
714.19
714.49
714.67
714.51
714.43
714.71
714.69
714.49
714.23
714.45
714.27
714.2
714.27
714.2
714.49
714.23
714.24
714.44
714.49
714.44
714.71
714.47
714.68
714.28
714.41
714.74
714.45
714.26
714.64
714.75
714.87
714.56
714.38
714.33
714.58
714.59
714.57
714.6
714.35
714.36
714.34
714.15
714.3
714.41
714.29
714.19
714.26
714.43
714.27
714.43
714.27
714.21
714.25
714.45
714.26
714.44
714.27
714.43
714.28
714.42
714.29
714.84
714.58
714.37
714.12
714.33
714.58
714.36
714.34
714.36
714.13
714.54
714.41
714.29
714.62
714.33
714.59
714.58
714.59
714.57
714.59
714.57
714.6
714.57
714.38
714.32
714.6
714.35
714.35
714.56
714.39
714.32
714.6
714.35
714.57
714.59
714.36
714.34
714.79
714.62
714.34
714.36
714.34
714.57
714.38
714.76
714.22
714.45
714.71
714.68
714.72
714.45
714.49
714.44
714.71
714.25
714.45
714.48
714.68
714.5
714.44
714.7
714.7
714.47
714.46
714.9
715.4
715.17
715.38
715.2
715.79
715.5
715.53
715.73
715.76
715.52
715.28
715.5
715.52
715.51
715.51
715.74
715.53
715.5
715.52
715.95
715.57
715.68
715.59
715.24
715.54
715.5
715.52
715.95
715.58
715.46
715.56
715.69
716.01
715.74
715.75
715.54
715.49
715.76
715.73
715.98
715.98
715.77
715.72
716
715.97
715.78
715.5
716.19
715.59
715.89
716.07
716.12
716.08
715.89
715.85
716.1
716.11
715.87
715.87
715.86
716.31
716.13
716.29
716.15
716.49
716.2
716.23
716.65
716.5
716.41
716.49
716.63
716.73
716.65
716.5
716.85
716.76
716.61
716.75
717.06
717.01
716.83
716.99
716.85
716.76
716.62
716.74
717.07
717.01
716.62
716.96
717.1
716.76
716.84
716.99
717.07
717
716.84
716.98
716.86
716.75
716.85
716.98
717.08
716.56
716.79
717.04
717.03
717.26
716.84
716.99
717.08
717.22
716.88
716.95
717.11
716.97
716.88
716.95
717.11
717.19
716.91
717.14
717.17
716.92
717.14
717.16
717.15
717.15
717.16
716.93
717.35
717.2
717.11
717.19
717.34
717.21
717.1
716.98
717.3
717.24
717.29
717.47
717.09
717.42
717.36
717.41
717.58
717.43
717.56
717.67
717.8
717.69
717.56
717.67
717.58
717.44
717.77
717.71
717.76
717.94
717.78
717.92
717.8
717.91
718.03
718.14
718.26
718.16
717.81
718.11
718.29
718.13
717.84
717.87
718.28
718.14
718.05
718.13
718.06
718.34
718.1
718.08
718.32
718.33
718.33
718.1
718.52
718.16
718.25
718.39
718.49
718.63
718.5
718.61
718.73
718.41
718.47
718.65
718.7
718.22
718.41
718.7
718.66
718.7
718.43
718.9
718.93
719.12
718.51
718.82
719
718.62
718.95
719.33
719
719.28
719.05
719.02
719.27
719.26
719.28
719.03
719.25
719.28
719.26
719.27
719.05
719.23
719.31
719.23
719.53
719.04
719.47
719.32
719.45
719.56
719.24
719.29
719.25
719.29
719.47
719.31
719.45
718.89
719.37
719.63
719.39
719.38
719.38
719.39
719.59
719.65
719.37
719.63
719.39
719.16
719.35
719.64
719.6
719.2
719.54
719.71
719.32
719.67
719.36
719.63
719.39
719.82
719.67
719.8
719.69
719.78
719.93
719.79
719.7
719.77
719.94
719.79
719.92
720.02
719.94
720
719.96
719.55
719.91
719.81
719.9
720.04
719.7
719.77
719.94
719.79
719.7
719.77
720.16
719.82
719.89
719.83
719.88
719.84
719.65
719.82
719.68
719.79
719.7
719.78
720.15
719.82
719.67
719.8
719.69
719.34
719.86
719.86
719.64
720.05
719.69
720
719.96
719.77
719.94
719.78
720.14
720.05
719.91
720.25
720.18
720.02
719.94
720
720.17
720.02
720.16
720.05
720.14
720.28
720.15
720.26
720.39
720.06
720.56
720.36
720.52
720.61
720.52
720.83
720.55
720.8
720.8
720.81
720.8
721.04
720.82
720.79
720.82
721.02
720.84
720.77
721.05
720.81
720.57
720.78
720.82
721.01
720.85
720.99
721.09
721
720.86
720.75
720.85
720.99
720.65
720.71
720.89
720.51
720.84
720.77
721.05
721.03
720.83
721.01
720.85
720.54
720.81
721.02
721.06
721.25
721.08
721.01
720.85
720.98
721.09
720.99
721.08
720.78
721.04
721.04
721.26
721.3
721.04
721.05
721.25
720.86
721.19
720.92
721.14
721.19
721.12
721.2
720.89
721.4
721.17
721.16
721.15
721.61
721.21
721.34
721.22
721.55
721.49
721.1
721.21
721.56
721.26
721.29
721.27
721.5
721.31
721.02
721.28
721.49
721.54
721.27
721.51
721.52
721.52
721.29
721.49
721.54
721.72
721.34
721.23
721.32
721.46
721.34
721.22
721.33
721.45
721.35
721.22
721.33
721.45
721.35
721.44
721.59
721.45
721.35
721.44
721.58
721.46
721.13
720.53
720.6
720.54
720.37
720.52
720.39
720.72
720.66
720.27
720.39
720.51
720.4
720.27
720.6
720.54
720.37
720.52
720.39
720.72
720.66
720.49
720.64
720.95
720.9
720.94
721.35
721.21
721.11
720.98
721.32
721.47
721.55
721.71
721.57
721.91
721.84
721.9
722.07
722.36
722.34
722.35
722.79
723.07
722.61
722.56
722.61
722.78
723.09
723.03
723.53
723.32
723.06
723.06
723.73
723.59
723.27
723.11
723.24
723.35
723.25
723.34
723.71
723.62
723.24
723.13
723.67
723.43
723.18
723.41
723.42
723.64
723
723.11
723.24
723.35
722.81
723.05
722.63
722.54
722.41
722.07
722.37
722.1
721.68
721.37
721.42
721.15
720.95
720.9
720.73
720.64
720.51
719.96
720.22
719.77
719.49
719.3
719.24
719.29
718.81
719
719.06
718.79
718.37
718.07
718.11
718.07
717.89
717.61
717.64
717.39
717.38
716.95
717.32
717.23
716.86
716.75
716.18
716.03
715.72
715.34
715.45
715.58
715.24
715.1
715.22
715.13
714.98
714.9
715.18
714.95
714.7
714.71
714.9
715.18
714.71
714.7
714.91
714.95
714.47
714.68
714.71
714.91
714.3
714.61
714.78
714.63
714.33
714.15
714.53
714.63
714.11
714.12
713.9
713.87
713.69
713.18
713.63
713.24
713.15
713.22
713.16
713
712.93
712.77
712.91
712.57
712.64
712.37
712.6
712.62
712.38
712.6
712.19
712.33
712.21
712.09
712.19
712.54
712.03
712.25
712.28
712.24
712.08
711.77
712.26
711.83
711.78
711.82
711.79
712.02
711.83
711.56
711.8
712.01
711.84
711.76
712.05
712.01
711.84
711.76
712.05
711.37
711.53
711.39
711.51
711.63
711.31
711.15
711.71
711.45
711.24
711.43
711.68
711.7
711.45
711.68
711.69
711.69
711.46
711.88
711.94
711.9
711.72
711.66
711.92
711.92
711.69
711.68
711.68
711.91
711.92
712.13
711.73
712.08
711.99
712.06
712.44
712.54
712.24
712.28
712.25
712.27
712.48
712.51
712.49
712.71
712.74
712.49
712.93
712.98
712.94
712.75
713.14
713.02
713.12
713.04
712.89
713.02
713.12
713.04
712.89
713.45
713.18
713.41
713.65
713.44
713.41
713.21
713.6
713.26
713.55
713.74
713.79
713.97
713.59
713.71
714.04
713.54
713.53
713.76
713.99
714.02
713.98
713.81
714.16
714.3
713.74
714.02
714.2
714.05
713.95
714.27
713.99
714.23
714.02
714.42
714.51
714.43
714.07
714.37
714.55
714.6
714.35
714.34
714.58
714.79
714.84
715.01
715.31
715.25
715.53
715.49
715.98
715.77
715.95
716
716.4
716.49
716.42
716.48
716.65
716.06
716.56
716.79
716.37
716.74
716.42
716.69
716.68
716.68
716.47
716.43
716.48
716.42
716.48
716.64
716.73
716.64
716.73
716.42
717.13
717.17
716.92
716.92
717.14
716.95
717.11
716.97
717.09
717.21
717.32
717.45
717.33
717.66
717.37
717.4
717.59
717.21
717.54
717.48
717.3
717.47
717.31
717.67
717.58
717.23
717.52
717.49
717.73
717.76
717.28
717.49
717.73
717.97
717.32
717.45
717.77
717.5
717.29
717.48
717.31
717.46
717.33
717.44
717.56
717.46
717.33
717.22
717.31
717.45
717.11
717.41
717.15
717.15
717.38
717.17
717.14
717.16
717.15
717.15
717.38
717.39
717.17
717.14
717.17
717.13
717.18
717.13
717.4
717.16
717.15
717.15
717.59
717.21
717.1
716.98
717.3
717.25
717.07
717.23
717.3
717.46
717.32
717.01
717.27
716.84
716.76
717.06
717.01
717.06
716.79
716.82
717
717.29
716.81
717.01
717.27
717.27
716.83
716.78
717.04
717.03
716.82
717.01
716.84
716.98
716.86
716.96
717.1
716.76
716.84
716.99
717.08
717.21
716.88
716.73
717.09
716.77
717.04
716.81
717.01
717.06
716.79
716.59
716.98
717.09
716.98
716.87
716.96
717.11
716.75
717.07
717
717.06
717.01
717.06
716.8
717.02
717.05
717.24
717.08
717.21
717.11
716.97
716.88
717.16
716.93
716.9
717.16
716.92
716.92
717.12
717.19
716.9
717.16
717.14
717.39
716.94
717.12
717.18
717.13
716.95
717.11
716.96
717.32
717.23
717.08
716.99
717.07
717.22
717.09
717.21
717.54
717.25
717.28
717.48
717.52
717.49
717.29
717.47
717.53
717.26
717.49
717.52
717.48
717.74
717.29
717.47
717.53
717.48
717.52
717.49
717.73
717.75
717.73
717.76
717.5
717.73
717.53
717.7
717.77
717.71
717.76
717.72
717.97
717.98
717.75
717.95
717.77
717.93
717.8
717.91
718.03
718.14
718.05
718.12
718.07
717.89
717.83
717.65
718.03
717.92
717.8
717.68
717.79
717.92
717.81
717.68
717.79
717.47
717.75
717.95
717.77
717.93
717.79
717.91
718.03
717.71
717.77
717.72
717.75
717.95
717.56
717.67
718.02
717.72
717.75
717.73
717.97
717.76
717.49
717.73
717.74
717.96
717.77
717.71
717.76
717.5
717.72
717.97
717.97
718.2
717.78
717.92
718.02
717.93
718.01
717.94
717.79
717.7
718
718.17
718.02
717.93
718.23
718.19
718.22
718.2
718.44
718.89
718.94
719.11
718.96
719.09
719.42
718.91
719.13
719.39
719.38
719.61
719.19
719.33
719.44
719.56
719.46
719.32
719.66
719.36
719.4
719.59
720.31
720.13
720.28
720.38
720.28
720.6
720.1
720.09
720.09
719.88
720.06
719.91
719.81
720.12
720.07
720.12
720.07
720.34
720.33
720.78
720.61
720.53
720.6
720.31
720.57
720.79
720.82
720.57
720.56
720.35
720.75
720.41
720.7
720.68
720.46
720.67
720.48
720.65
720.49
720.42
720.47
720.43
720.46
720.67
720.26
720.18
720.24
720.19
720.01
720.17
719.59
719.65
719.6
719.42
719.58
719.22
719.53
719.48
719.3
719.02
719.04
719.25
718.84
718.98
719.08
719.21
718.88
718.94
718.9
719.15
718.94
718.89
718.95
718.88
719.17
718.69
719.11
718.96
719.09
718.98
719.08
719.21
719.09
718.98
719.08
719.43
719.13
718.95
719.11
719.19
719.12
718.95
719.32
719.44
719.34
719.43
719.57
719.45
719.33
719.43
719.35
719.2
719.33
719.22
719.31
719.67
719.58
719.43
719.57
719.67
719.58
719.44
719.78
720.15
719.83
719.88
719.84
720.31
720.35
720.09
720.54
720.59
720.99
721.08
721.22
721.33
721.46
721.57
721.47
721.56
721.92
721.83
721.68
722.04
721.95
722.02
722.18
722.27
722.41
722.29
722.39
722.75
722.44
722.49
722.89
722.99
722.9
722.98
723.36
723.25
723.34
723.27
723.32
723.73
723.6
723.49
723.58
723.95
723.85
723.71
723.83
724.18
724.1
723.94
724.08
724.41
724.12
724.14
724.35
724.39
724.58
724.19
724.31
724.88
724.83
724.65
724.81
724.67
725.01
724.94
724.77
725.15
725.27
725.39
725.28
725.6
725.55
725.37
725.75
725.64
725.73
725.88
725.75
726.09
726.02
725.85
726
726.1
726.68
726.41
726.42
726.42
726.63
726.46
726.59
726.94
726.63
726.91
726.88
727.36
726.94
727.08
727.19
727.31
727.21
727.07
727.42
727.34
727.41
727.35
727.4
727.58
727.65
727.59
727.42
727.79
727.92
727.8
727.91
728.04
728.16
727.83
728.11
728.09
728.11
728.1
728.1
728.55
728.39
728.3
728.38
728.76
728.66
728.51
728.42
728.5
728.66
728.51
728.65
728.75
728.67
728.51
728.65
728.97
728.93
728.96
729.17
728.98
729.37
729.26
729.13
729.46
728.96
728.93
728.96
728.93
729.19
728.73
728.91
728.98
728.92
728.97
728.71
728.93
729.19
728.73
729.13
729.24
729.15
729
728.9
729.44
729.2
728.95
729.17
729.2
729.18
728.97
729.15
729.45
729.64
729.25
729.58
729.76
729.6
729.97
730.55
730.96
730.83
731.17
731.55
732.14
732.54
732.65
733.01
733.62
733.54
733.84
733.81
734.06
734.08
734.29
734.8
734.35
735.2
735.16
735.41
735.9
735.69
735.65
735.68
736.12
736.19
735.91
735.91
736.15
735.94
736.13
735.96
735.88
736.17
735.93
735.67
736.13
735.73
735.62
735.48
735.14
735.43
735.42
735.43
735.65
735.45
735.4
735.21
735.6
735.5
735.36
735.48
735.37
735.47
735.38
735.46
735.85
735.28
735.54
735.33
735.26
735.57
735.29
735.54
735.77
735.36
735.47
735.39
735.44
735.65
735.22
735.84
735.75
735.84
735.52
735.57
735.98
735.87
735.72
735.86
735.73
736.08
735.54
736.01
735.83
735.75
735.83
735.76
735.59
735.5
735.13
734.98
734.89
734.96
734.68
734.45
734.66
734.24
734.16
733.99
733.92
733.74
733.44
733.46
733.46
732.99
732.95
732.98
733.19
732.77
732.68
732.52
732.89
732.34
732.36
732.58
732.62
732.58
732.38
732.33
732.37
732.34
731.91
732.28
732.19
732.03
731.95
732.02
732.19
732.26
731.98
731.99
732.22
732.01
731.97
732.23
732.47
732.25
732.45
732.5
732.91
732.78
732.67
732.77
732.91
733.02
732.92
733.01
733.39
733.29
733.14
733.04
733.35
733.55
733.14
733.5
733.42
733.48
733.66
733.51
733.87
734.02
733.65
733.74
733.9
733.99
733.91
733.98
733.92
733.97
733.93
734.19
734.2
733.96
734.4
734.47
734.86
734.53
734.58
734.55
734.8
734.82
734.56
734.8
734.81
735.04
734.83
734.79
735.05
735.06
734.81
735.27
735.32
735.51
735.57
735.52
735.79
735.57
735.52
736.03
736.04
736.04
736.04
736.04
736.03
736.51
736.33
736.48
736.58
736.49
736.34
736.47
736.59
736.71
736.61
736.69
736.86
737.17
736.68
736.63
737.15
737.15
736.93
736.87
737.17
737.59
737.24
737.29
737.5
737.3
737.73
737.34
737.69
737.37
737.66
737.64
737.66
737.17
737.83
737.73
737.81
737.51
737.53
737.76
737.78
737.77
737.53
737.75
737.79
738
737.81
737.98
737.82
738.19
737.87
737.91
738.11
737.48
737.79
737.99
738.04
738
737.8
738.21
738.31
738.23
738.3
738.25
738.51
738.29
738.24
738.53
738.27
738.5
738.53
738.51
738.29
738.49
738.54
738.5
738.53
738.74
738.56
738.71
738.81
738.73
738.8
738.74
739.02
738.78
738.98
739.51
739.51
739.28
739.48
739.55
739.48
739.55
739.48
739.78
739.75
739.78
739.75
739.78
739.98
740.04
739.75
739.77
739.75
739.77
739.52
739.5
739.75
739.77
739.76
740
739.79
739.97
740.05
740.2
740.32
739.98
740.04
740.21
740.07
740.19
740.33
740.43
740.35
740.41
740.37
739.92
740.56
740.47
740.32
740.44
740.57
740.69
740.83
740.93
740.85
740.91
741.1
740.93
741.32
740.98
741.04
741.22
741.3
741.46
741.55
741.24
741.28
741.48
741.54
741.73
741.79
741.5
741.52
741.51
741.51
741.51
741.51
741.75
741.54
741.49
741.53
741.5
741.52
741.51
741.51
741.75
742.01
742.02
741.54
741.72
742.03
742
741.79
741.97
742.05
742.22
742.07
742.19
742.09
742.18
742.34
742.19
742.56
742.48
742.55
742.49
742.54
742.5
742.53
742.51
742.76
742.31
742.45
742.58
742.69
742.84
742.46
742.8
742.73
742.8
742.5
742.77
742.77
742.77
742.77
742.54
742.73
743.04
743
743.03
743
743.03
743
743.27
743.04
742.76
743.24
743.06
743.45
743.36
743.42
743.61
743.44
743.83
743.72
744.06
743.77
743.78
743.77
743.78
744.01
744.04
744.02
744.03
744.02
744.03
744.03
744.26
744.53
744.53
744.54
744.52
744.78
744.79
744.55
744.52
744.55
744.52
744.78
744.55
744.75
744.81
745
744.6
744.7
744.86
744.95
744.88
744.7
745.1
744.99
744.61
744.69
744.63
744.91
744.68
744.4
744.65
744.9
744.93
744.65
744.67
744.88
744.94
744.88
745.18
744.91
744.91
744.67
744.65
744.66
744.65
744.42
744.39
744.42
744.39
743.94
744.33
744.24
744.08
743.99
743.59
743.7
743.6
743.46
743.34
743.45
743.59
743.47
743.56
743.49
743.08
743.21
743.09
743.19
743.1
743.18
743.11
743.17
743.12
742.93
742.86
742.92
742.87
742.91
743.11
742.94
742.85
742.69
742.83
742.72
742.57
742.47
742.79
742.99
742.81
742.74
742.56
742.95
742.84
742.94
742.86
742.92
742.87
742.91
742.88
743.14
743.15
743.37
743.19
743.33
743.46
743.34
743.92
743.88
743.92
743.88
744.16
743.91
743.89
744.14
744.4
744.17
744.13
744.4
744.41
744.17
744.14
744.16
744.38
744.43
744.39
744.19
744.36
744.69
744.4
744.18
744.6
744.71
744.38
744.2
744.58
744.49
744.33
744.48
744.81
744.77
744.56
744.74
745.05
745.03
744.8
745.01
744.82
745.46
745.38
745.21
745.59
745.5
745.34
745.49
745.83
746.01
745.85
746.23
746.84
746.79
747.07
747.31
747.09
747.76
747.66
747.74
748.38
748.3
748.13
748.28
748.63
748.57
748.62
748.82
748.88
749.07
748.9
748.81
748.89
748.82
748.88
748.83
749.11
749.11
748.86
749.08
749.37
749.6
749.16
749.3
749.42
749.55
749.44
749.53
749.94
749.82
749.69
750.03
749.98
750.02
749.76
750.21
750.55
750.48
750.56
750.47
751.28
750.81
750.74
751.04
751.03
751.27
751.31
751.26
751.08
751.22
751.35
751.23
751.35
751.23
751.11
750.96
751.58
750.8
750.99
750.83
751.2
751.12
750.94
751.11
751.2
750.89
750.66
750.87
751.16
751.17
750.67
751.11
751.2
751.13
750.94
751.11
751.43
750.93
751.11
751.45
751.38
751.7
751.41
751.43
751.64
751.71
751.15
751.41
751.66
751.45
751.38
751.69
751.41
751.66
751.44
751.64
751.23
751.58
751.28
751.53
751.81
751.07
751.47
751.37
751.7
751.41
751.18
751.38
751.45
751.39
751.2
751.13
751.43
751.17
751.15
751.17
751.14
751.41
750.94
750.87
751.17
751.15
750.93
751.12
751.43
751.4
751.19
751.13
750.94
751.34
751.24
751.08
750.99
751.54
751.32
751.49
751.6
751.01
751.54
751.31
751.76
751.6
751.74
752.1
751.8
751.8
752.05
752.07
752.3
751.61
751.97
752.14
751.99
751.88
751.97
752.38
752.27
752.12
752.25
752.14
752.23
752.15
751.98
752.13
752.24
752.15
752.22
752.16
752.21
752.18
752.2
752.43
752.46
752.2
752.18
752.45
752.44
752.21
752.16
752.7
752.47
752.43
752.22
752.65
752.76
752.66
752.5
752.64
752.77
752.89
752.79
753.12
753.32
753.38
753.33
753.61
753.62
753.6
753.87
753.87
754.12
754.13
754.13
753.88
754.34
754.19
754.08
754.17
754.09
754.16
754.1
753.91
754.08
753.93
754.06
753.95
754.04
753.97
753.78
754.19
754.08
754.17
754.09
754.16
754.34
754.18
754.32
754.45
754.58
754.47
754.56
754.48
754.78
755.02
754.81
755
754.83
755.22
755.12
755.2
755.62
755.26
755.33
755.52
755.83
756.05
755.86
756.27
756.64
756.32
756.59
756.85
756.62
757.07
756.92
757.05
757.18
757.07
757.17
757.33
757.43
757.1
757.14
757.35
757.41
757.12
757.12
757.37
757.39
757.13
757.11
757.38
757.38
757.63
757.17
757.32
757.68
757.37
757.39
757.62
757.91
757.9
757.66
757.87
758.18
757.91
757.9
758.16
757.93
758.13
757.72
758.06
758.02
758.05
758.28
758.31
758.79
758.36
758.49
758.38
758.97
758.95
758.72
758.92
759.23
759.2
758.98
759.17
759.26
759.67
759.56
759.65
759.58
759.14
759.53
759.68
759.8
759.7
759.54
759.67
759.81
759.69
759.55
759.42
759.78
759.71
759.77
759.97
759.79
759.95
760.06
759.96
760.05
759.97
760.03
760.23
760.3
760.24
760.54
760.53
760.53
760.78
760.56
760.76
760.83
760.77
760.57
760.99
761.12
761
761.11
761.02
761.1
761.28
761.37
761.54
761.39
761.51
761.9
761.81
761.89
761.82
762.13
762.61
762.68
762.87
762.95
763.13
763.22
763.14
763.21
763.15
763.2
763.16
762.94
763.14
762.72
762.83
762.99
763.09
762.76
763.04
763.06
763.03
763.06
762.53
763
762.84
763.23
763.14
762.96
763.12
763.23
763.14
763.21
763.15
763.45
763.45
763.19
763.42
763.46
763.43
763.45
763.44
763.69
763.73
763.93
764.27
764.22
764.52
764.25
764.49
764.78
764.53
764.98
765.35
765.02
765.31
765.06
765.53
765.62
765.78
765.9
765.79
766.14
766.34
765.92
766.27
766.22
765.76
766.17
766.06
766.41
766.1
765.87
765.58
765.82
766.11
765.86
765.83
766.1
766.12
766.1
765.87
766.06
766.4
766.35
766.4
766.61
766.19
766.29
766.71
766.58
766.7
766.59
766.94
767.14
766.97
766.86
767.21
767.41
767.24
767.13
767.23
767.39
767.5
767.4
767.74
767.7
767.48
767.67
768.01
768.22
768.04
767.94
768.28
767.99
768.23
768.28
768.23
768.28
767.98
768
768.22
768.54
768.26
768.01
768.22
768.3
767.97
768.01
767.97
768.01
767.97
767.76
767.93
768.29
767.47
767.68
767.5
767.4
767.49
767.41
767.24
766.88
766.44
765.82
765.36
765.26
765.11
764.74
764.31
764.42
764.34
763.91
763.54
763.6
763.81
763.37
763.26
763.11
763.24
763.12
762.98
762.85
762.97
762.62
762.43
762.35
762.17
762.32
761.95
762.26
762.24
762
761.73
761.46
761.7
761.25
761.15
760.98
761.13
760.76
760.34
760.21
760.57
760.26
760.27
760.27
760.51
760.31
759.98
760.04
759.73
760
759.76
759.73
759.75
759.74
759.5
759.46
759.49
759.72
759.28
759.17
759.51
759.95
759.57
759.4
759.31
759.63
759.6
759.37
759.83
759.67
759.81
759.44
759.76
759.73
759.75
759.99
760.02
760.49
760.57
760.5
760.81
761.28
761.12
761.26
761.63
761.55
761.37
761.53
761.89
761.83
761.38
761.52
761.65
761.78
761.18
760.95
761.4
761.26
760.9
760.96
760.91
761.19
761.2
761.42
761.74
761.95
762.27
762.47
763.05
762.54
762.25
762.5
763.52
763.87
764.31
764.68
765.61
766.05
765.91
766.28
766.71
766.84
766.23
766.26
766.48
766.79
766.53
766.49
766.78
766.78
766.78
767.02
767.32
767.06
767.04
767.06
767.54
767.62
767.55
767.62
767.81
767.9
767.81
767.64
767.53
767.88
767.83
767.62
767.8
767.9
768.31
768.47
768.32
768.2
768.05
767.94
768.28
768.24
768.26
768.26
768.25
768.52
768.52
768.54
768.26
768.76
768.82
768.78
769.06
769.08
768.8
768.8
769.04
768.84
768.5
768.81
768.78
769.06
768.81
768.78
769.31
769.36
769.05
769.33
769.09
769.55
769.4
769.27
769.39
769.53
769.42
769.51
769.44
769.49
769.46
769.22
769.44
769.49
769.46
769.22
769.69
769.53
769.42
769.51
769.69
769.53
769.67
769.79
770.2
770.1
769.93
770.07
770.21
770.34
770.23
770.07
770.46
770.37
769.95
770.06
769.97
770.29
770.27
770.03
770
770.02
770.26
770.04
770.49
769.85
770.14
770.65
770.46
770.38
770.44
770.39
770.43
770.91
770.75
771.14
771.05
771.12
771.57
771.18
771.52
771.74
771.8
772
772.07
772.27
771.84
772.21
772.4
772.49
772.42
772.73
773.23
773.04
773.2
773.32
773.22
773.3
773.24
773.29
773.25
773.28
773.26
773.27
773.52
773.05
773.45
773.61
773.73
773.89
773.49
773.83
773.79
773.83
773.8
773.82
774.06
773.85
773.78
773.84
774.3
774.16
774.02
774.14
774.03
774.13
774.3
774.16
774.53
774.47
774.26
774.7
774.82
774.73
774.55
774.71
774.82
774.98
774.58
774.67
774.85
775.21
775.15
775.2
774.91
775.15
775.21
775.15
775.72
775.73
775.72
775.47
775.95
776.05
775.45
775.71
775.49
775.41
775.49
775.42
776
775.75
775.71
775.48
775.68
776.02
775.73
775.98
775.77
775.94
776.06
775.95
776.31
775.99
776.01
776.25
776.3
776.51
776.34
776.22
776.84
776.56
776.55
776.3
776.76
776.88
776.26
776.55
776.55
776.55
776.55
776.55
776.55
776.8
776.59
776.52
776.58
776.78
777.12
776.82
777.08
777.12
777.08
777.12
777.6
776.94
777.23
777.25
777.73
778.63
778.34
778.35
778.58
778.66
778.57
778.41
778.53
778.71
778.27
778.41
778.53
778.7
778.27
778.66
778.57
778.15
778.24
778.69
778.54
778.69
778.29
778.64
778.59
778.9
778.38
778.56
778.67
779.09
778.73
778.76
778.76
778.74
778.77
778.73
779.05
778.75
778.77
778.74
779.04
778.5
778.98
779.07
779.26
778.83
778.95
778.84
779.19
779.15
778.93
779.12
779.47
779.42
779.21
779.14
779.46
779.7
779.23
779.37
779.26
778.83
778.18
777.45
777.31
777.17
776.79
776.85
776.81
776.58
776.53
776.31
776.25
775.78
776.19
776.34
776.47
776.36
775.95
776.3
776.26
776.03
775.98
776.02
776.24
776.05
775.71
776
776.27
776.28
776.02
775.73
775.98
775.76
775.44
775.46
775.45
774.94
774.87
774.93
774.88
773.91
773.98
774.18
774.25
773.95
773.68
773.67
773.92
773.72
773.37
773.95
773.69
773.67
774.18
774.77
774.5
775
775.07
775.27
775.09
775.25
775.11
775.49
775.68
775.26
775.62
775.82
775.9
776.09
775.66
775.78
776.19
776.09
775.67
775.52
775.9
775.83
775.63
776.06
775.69
776.01
775.74
775.19
775.68
775.26
775.37
775.27
775.61
775.58
775.09
775
775.33
775.05
775.28
775.1
774.99
774.84
774.7
775.09
774.74
775.05
774.52
774.73
774.55
774.44
774.29
774.16
774.53
774.72
774.3
774.14
774.29
774.41
774.57
774.43
774.3
774.4
774.58
774.42
774.56
774.43
774.55
774.44
774.79
774.74
774.53
774.97
775.11
774.98
775.09
775.5
775.92
776.32
776.75
777.14
777.84
778
778.38
778.57
778.4
778.29
778.13
778.26
777.9
777.69
777.62
777.42
777.34
777.14
777.32
777.16
777.05
777.4
777.36
777.13
777.08
777.12
777.35
777.14
777.32
777.42
777.34
777.15
777.57
777.47
777.55
777.49
777.53
777.76
777.56
777.74
777.58
777.72
777.34
777.41
777.61
777.43
777.33
777.42
777.6
777.44
777.32
777.43
777.33
777.41
777.35
777.4
777.61
777.43
777.33
777.67
777.63
776.89
777.28
777.47
777.55
777.49
777.28
777.47
777.55
777.48
777.28
777.72
777.59
777.7
777.61
777.69
777.87
777.72
777.59
777.7
778.12
778.02
777.85
778
778.38
778.31
778.1
778.03
778.09
778.31
778.11
778.03
778.36
778.59
778.13
778.01
778.37
777.81
778.02
778.11
778.02
777.85
777.47
777.56
777.47
777.04
776.89
777.29
777.19
777.03
776.64
776.99
776.68
776.69
776.43
776.4
776.42
776.4
776.17
775.86
776.13
776.15
775.62
775.82
775.91
775.57
775.61
775.57
775.61
775.32
775.32
775.31
775.32
775.31
775.07
774.76
775.28
775.09
774.74
774.79
775.01
775.07
774.76
774.52
774.73
774.55
774.7
774.58
774.67
774.6
774.4
774.83
774.71
774.56
774.69
774.84
774.45
774.79
774.5
775
774.83
774.7
774.83
774.2
774.5
774.49
774.76
774.52
774.47
775.02
774.81
774.73
774.81
774.48
775.02
774.8
774.99
775.09
775
775.08
775.01
775.07
775.02
774.81
774.99
774.84
774.96
775.11
774.98
774.85
775.21
774.9
774.9
775.43
774.96
775.11
775.23
775.39
775.25
775.12
775.48
775.69
775.5
775.67
775.52
775.65
775.79
776.18
776.1
775.91
776.59
777.03
777.67
779.18
779.68
780.02
779.99
780.52
780.85
780.3
780.52
780.85
780.83
780.58
780.54
780.83
780.58
780.27
780.55
780.56
780.81
780.85
780.56
780.81
780.86
780.55
780.83
780.58
780.54
780.06
779.95
780.05
779.96
779.78
779.68
779.77
779.69
779.24
779.11
779.23
779.38
778.99
779.06
778.76
779.01
779.06
778.74
779.29
778.8
778.72
778.53
778.44
778.51
778.2
778.2
778.21
778.19
778.22
777.93
778.19
778.21
778.2
777.95
778.42
778.53
778.18
777.96
778.15
778.25
778.42
778.53
778.69
778.81
778.45
778.25
778.68
778.82
778.44
778.26
778.67
778.57
778.39
778.56
778.67
778.83
778.68
778.82
779.21
779.14
778.94
779.12
778.7
779.06
779.01
779.05
779.01
779.05
779.28
779.08
779.51
779.4
779.23
779.12
779.47
779.43
779.19
779.15
778.92
779.65
779.28
779.08
778.99
779.06
779.01
778.79
779.24
779.37
779
778.8
778.71
779.05
779.02
778.78
779.25
779.1
778.97
779.08
779.24
779.11
779.22
779.13
779.46
779.44
779.19
779.41
779.47
779.69
779.24
779.37
779.77
779.68
779.5
779.4
779.48
779.67
779.25
779.36
779.27
779.6
779.58
779.33
779.81
779.65
779.28
779.59
779.84
779.1
779.49
779.42
779.99
780.02
779.47
779.69
779.49
779.67
779.52
779.39
779.5
779.4
779.23
779.38
779.51
779.39
778.98
779.08
779.25
779.1
778.97
778.82
779.21
779.13
778.94
779.11
779.22
779.38
779.25
779.62
779.82
779.64
779.8
779.66
779.78
779.93
779.8
779.91
780.34
780.49
780.36
780.47
780.89
780.78
780.62
780.76
781.16
781.07
780.88
781.05
781.17
780.81
780.85
781.08
780.88
781.05
780.9
780.77
781.15
781.08
780.88
781.32
780.94
781.26
781.25
781.25
781.77
781.58
781.49
781.56
781.51
781.55
781.52
781.54
781.53
781.53
781.8
781.56
781.77
782.1
782.34
782.39
782.87
782.97
783.14
783
783.64
783.62
783.36
783.85
783.42
784.06
784.04
783.79
784.53
784.41
784.51
784.95
785.35
785.53
785.63
785.81
786.44
786.7
786.46
786.93
787.05
787.48
787.11
787.42
787.95
788.02
788.22
788.31
789.03
788.94
789.01
789.22
789.82
789.84
789.55
789.55
789.8
789.86
789.8
790.13
790.1
790.66
790.17
790.33
790.72
790.39
790.41
790.66
790.7
790.4
790.39
790.94
790.73
790.64
790.45
790.62
790.74
790.9
790.51
790.3
790.75
790.36
790.44
790.37
790.16
790.34
790.19
790.31
790.21
790.29
790.23
790.27
790.25
789.73
789.92
790.01
790.21
790.03
789.66
789.97
790.24
789.74
789.65
789.72
790.19
790.05
789.64
789.72
789.92
789.75
789.64
789.73
789.65
789.71
789.67
789.44
789.64
789.73
789.65
789.45
789.63
789.74
789.64
789.99
790.22
790.28
789.97
789.71
790.2
789.51
789.57
789.79
789.59
789.51
789.05
789.18
789.06
788.64
788.21
788.06
788.19
788.08
787.64
787.76
787.65
787.74
787.67
787.21
787.87
787.57
787.29
787.54
787.31
787.52
787.33
787.5
787.62
787.25
787.3
787.79
787.89
787.81
787.61
788.05
788.19
788.33
787.95
787.75
788.19
788.34
787.95
788.02
788.49
788.61
788.51
788.59
788.79
788.61
788.76
789.16
789.08
788.88
789.06
789.17
789.34
789.19
789.32
789.21
789.57
789.53
789.55
789.54
790.07
790.16
789.8
790.12
790.1
790.13
789.57
790.06
789.9
790.03
789.92
790.01
789.94
789.73
789.66
789.71
789.94
789.2
789.57
789.79
789.87
789.53
789.02
789.2
789.31
789.22
788.77
788.89
789.06
788.91
788.78
788.89
789.32
789.21
789.04
788.92
789.29
789.24
789.02
788.94
789.53
789.56
789.27
789.52
789.83
789.57
789.78
789.87
789.52
789.83
789.82
790.1
789.86
789.8
789.85
790.08
790.15
789.55
789.53
789.82
789.84
789.82
789.57
789.79
790.13
790.1
790.13
790.37
790.69
790.68
790.42
790.64
790.46
790.08
790.41
790.39
790.14
790.36
790.44
790.63
790.47
790.07
790.68
790.69
790.68
790.69
790.41
790.65
790.45
790.89
790.78
790.6
790.5
790.57
790.78
790.86
791.07
790.88
790.79
790.86
791.34
790.91
791.02
791.19
791.31
791.21
791.03
791.18
791.05
791.16
791.07
790.88
791.05
790.9
790.76
791.14
790.82
790.83
790.83
790.82
791.37
791.15
791.08
791.14
791.36
790.9
791.03
791.19
791.31
791.21
791.56
791.53
791.54
791.28
791.23
791.55
791.52
791.56
791.52
791.57
791.51
791.57
791.5
791.84
791.54
791.81
791.57
791.25
791.79
792.13
791.56
792.06
791.89
792.03
791.92
792.01
792.2
792.3
792.22
792.28
792.24
792
792.21
791.75
792.15
792.07
791.88
791.78
791.86
792.06
791.89
791.77
791.87
791.79
791.86
792.06
791.88
792.04
791.91
791.75
792.16
792.07
791.88
792.05
792.17
792.06
792.15
792.08
792.14
792.09
791.86
792.06
792.16
791.81
791.57
791.78
792.13
792.09
791.86
792.06
792.15
791.81
791.84
791.82
792.1
792.13
791.83
792.09
791.86
792.06
792.16
791.8
792.11
792.12
791.84
792.35
791.91
792.28
792.24
791.73
792.44
791.82
792.09
792.13
792.09
792.13
792.09
792.13
792.09
792.13
792.09
791.87
792.05
792.17
792.06
791.89
792.29
792.23
792.27
791.98
791.94
792.26
791.97
792.24
791.99
792.48
792.32
792.2
792.03
792.19
792.31
792.74
792.1
792.38
792.15
792.07
792.15
792.07
792.42
792.11
792.12
792.37
792.16
792.06
792.16
791.79
792.39
792.14
792.09
792.13
792.1
792.12
792.1
792.11
792.38
791.88
792.31
792.48
792.06
792.16
792.07
792.14
792.35
792.17
792.32
792.46
792.34
792.18
792.05
792.43
792.63
791.93
792
791.94
792.25
