420.41
420.8
420.7
421.04
420.99
421.29
421.53
421.32
421.5
421.85
421.79
422.09
422.08
422.34
422.87
423.16
423.16
422.9
422.88
423.15
422.92
423.11
423.45
423.4
423.7
423.69
423.95
423.97
424.21
424.76
425.04
425.3
425.58
425.84
426.13
426.38
426.68
427.18
427.52
427.99
428.36
428.8
428.94
429.07
429.23
429.33
429.51
429.35
429.5
429.36
429.74
429.66
429.74
429.93
430.02
429.94
430.02
430.2
430.82
430.81
430.82
430.81
431.07
431.37
431.11
431.6
431.7
431.61
431.69
431.62
431.94
431.66
432.16
432.52
432.46
432.52
432.46
432.52
432.46
432.78
433.02
432.82
432.72
433.08
433.03
432.81
432.99
433.11
433
432.84
432.96
433.13
432.98
433.38
433.02
433.34
433.33
433.07
433.29
433.37
433.56
433.66
433.57
433.92
434.14
434.48
434.98
435.07
435.25
435.37
435.26
435.36
435.8
435.95
436.08
435.98
436.06
436.26
436.08
436.78
436.71
436.5
436.41
436.75
436.73
436.48
436.7
436.51
436.41
436.49
436.15
436.44
436.47
436.17
436.17
436.16
436.17
436.16
435.91
436.11
435.95
435.81
435.95
435.55
435.91
435.86
435.91
435.86
435.91
435.86
436.17
436.16
436.44
436.19
436.14
436.45
436.19
436.41
436.76
436.72
437.02
436.76
436.99
437.33
437.3
437.32
437.3
437.59
437.61
437.59
437.88
437.9
438.14
437.93
438.11
438.23
438.39
438.26
438.36
438.56
438.37
438.54
438.66
438.84
438.67
438.82
438.95
439.12
438.97
439.1
438.98
439.63
439.61
439.62
439.89
439.93
440.43
440
440.1
440.29
440.38
440.59
440.4
440.57
440.42
440.55
440.44
440.81
440.76
440.8
440.77
441.33
441.13
441.02
441.4
441.61
441.71
441.34
441.67
442.19
442.29
442.19
442.56
442.51
442.84
442.82
443.11
443.41
443.98
444.04
444.26
444.62
444.86
444.93
445.15
445.52
445.75
446.11
446.07
446.38
446.68
446.7
446.96
447.29
447.56
447.33
447.25
447.32
447.26
447.03
446.94
447.03
447.23
447.34
447.24
447.33
447.25
447.32
447.26
447.03
447.22
447.06
447.2
447.65
447.53
447.64
447.54
447.91
447.87
447.62
447.56
447.89
447.89
447.61
447.57
447.6
447.58
447.59
447.58
447.31
447.55
447.34
447.24
447.61
447.29
447.28
447.29
447.28
447.3
447.28
447.3
447.28
447.58
447.31
447.26
447.59
447.59
447.3
447.55
447.62
447.56
447.61
447.85
448.21
448.46
448.52
449.03
449.16
449.88
450.12
450.75
451.35
451.96
452.59
452.89
453.8
453.86
454.39
454.21
454.66
454.85
455.26
455.2
455.54
455.83
455.57
455.51
455.56
455.52
455.55
455.53
455.54
455.54
455.53
455.84
455.86
455.56
455.81
456.18
456.14
456.19
456.43
456.81
456.76
457.11
457.09
457.69
457.76
458.29
458.72
459.22
459.38
459.24
459.95
460.22
460.29
460.53
460.32
460.2
460.6
460.25
459.96
459.92
460.25
459.97
459.61
459.63
459.32
459.59
459.65
459.89
459.98
459.9
460.27
460.25
460.86
461.23
461.2
461.82
462.18
462.47
462.81
462.81
463.11
463.46
463.46
464.06
464.14
464.07
464.43
464.72
464.78
464.72
464.77
464.73
465.07
465.08
464.77
465.34
465.15
465
464.84
464.97
465.17
464.98
464.85
464.96
465.18
464.97
465.16
465.29
465.19
465.57
465.86
465.9
466.18
465.93
466.46
466.3
466.75
466.36
466.38
466.67
466.42
466.64
466.45
466.31
466.43
466.63
466.76
466.65
466.44
466.32
466.42
466.33
466.1
465.7
465.14
465.02
465.12
464.73
464.16
463.76
463.8
463.47
462.84
462.79
462.53
462.16
461.58
461.49
460.97
460.82
460.66
460.5
460.64
460.22
460.28
460.53
460.02
459.87
459.7
459.55
459.39
459.23
459.37
458.96
459.02
459.26
458.75
458.9
458.78
458.58
458.75
458.31
458.4
458.33
458.38
458.34
458.37
458.35
458.07
458.32
458.39
458.04
458.04
458.05
458.33
458.39
458.33
458.68
458.66
458.98
458.7
458.94
459.03
459.25
459.06
459.22
459.38
459.53
459.71
459.55
459.69
459.86
459.72
459.83
460.04
459.56
459.98
459.91
459.67
459.87
459.7
459.55
459.68
459.57
459.38
459.54
459.7
459.55
459.39
459.23
459.37
459.54
459.4
459.52
459.42
459.5
459.73
459.52
459.71
459.54
459.69
459.86
459.72
459.84
459.74
459.82
460.05
459.55
459.98
459.9
460.26
460.26
459.96
460.22
460.28
460.24
460.27
460.25
460.85
460.93
460.55
460.89
460.89
460.9
460.88
461.2
460.92
461.17
461.25
461.18
461.54
461.53
461.53
461.84
461.86
461.84
461.86
462.15
462.19
462.45
462.53
462.46
462.52
462.77
462.85
462.78
462.84
462.49
462.79
462.83
462.79
462.84
462.79
463.13
463.13
463.44
463.47
463.74
464.11
463.79
464.07
464.44
464.41
464.74
464.46
464.7
464.8
465
465.14
464.71
465.08
465.37
465.43
465.37
465.72
466.03
465.76
465.99
466.1
466.3
465.84
465.62
465.82
465.64
465.5
465.3
465.48
465.32
465.47
465.33
465.45
465.35
465.44
465.36
465.43
465.37
465.42
465.38
465.41
465.69
465.45
465.65
465.78
465.67
465.77
465.68
465.76
465.99
465.79
465.96
466.12
465.98
466.41
466.34
466.7
466.7
466.7
467.01
467.04
466.72
467.29
467.42
467.29
467.72
467.65
468.03
468
468.03
467.69
467.99
468.03
467.69
467.98
468.04
467.98
468.34
468.34
468.35
468.64
469
468.69
468.96
468.73
468.92
469.07
468.94
469.36
468.68
468.96
469.04
469.27
469.38
469.28
469.38
469.28
469.37
469.29
469.37
469.6
469.4
469.26
469.7
469.32
469.34
469.32
469.65
469.37
469.29
469.36
469.3
469.67
469.34
469.32
469.65
469.37
469.6
469.71
469.61
470.02
469.97
470.01
469.97
470.32
470.32
470.01
469.97
470.32
470.63
470.37
470.59
470.71
470.29
470.66
470.65
470.66
470.65
470.66
470.65
470.66
470.34
470.61
470.69
470.62
470.38
470.58
470.72
470.59
470.71
470.29
470.35
470.61
470.7
470.62
470.38
470.58
470.42
470.55
470.75
470.56
470.74
470.58
470.72
470.9
471.37
470.96
471.01
471.28
471.66
471.03
471.26
471.38
471.26
471.38
471.27
471.68
471.62
471.68
471.63
471.68
471.94
472.03
472.25
472.39
471.95
472.02
471.96
472.02
471.96
472.01
472.27
472.37
472.28
472.05
471.93
472.35
472.3
472.03
471.95
472.34
472.31
472.02
471.96
472.02
471.96
472.01
471.97
472
471.98
472
471.98
471.99
472.3
472.34
472.3
472.65
472.67
472.65
472.67
472.64
472.67
472.64
472.98
473
472.99
472.99
472.99
472.99
473
472.99
472.69
472.94
473.04
472.94
473.04
472.95
473.03
472.95
473.03
473.27
473.07
473.23
473.42
473.24
473.72
473.93
473.76
473.58
473.74
473.91
473.77
473.88
474.11
473.9
473.78
473.56
473.76
473.27
473.07
472.92
472.74
472.58
472.41
472.56
472.12
472.18
472.14
471.85
472.11
471.88
472.08
471.91
472.06
471.93
471.73
471.9
472.06
471.93
472.04
472.26
472.37
472.28
472.04
472.26
472.07
472.23
472.4
472.57
472.42
472.55
472.44
472.53
472.76
472.88
472.78
472.86
472.8
473.16
473.16
473.15
473.17
473.15
473.17
472.83
473.13
473.18
473.45
473.22
473.42
473.25
473.39
473.28
473.36
473.62
473.38
473.28
473.36
473.62
473.38
473.28
473.67
473.35
473.3
473.68
473.33
473.96
473.72
473.93
473.75
473.91
474.08
473.93
474.06
474.27
474.09
474.24
474.42
474.27
474.4
474.29
474.69
474.66
474.37
474.63
474.71
474.96
474.74
474.62
474.73
474.95
474.76
474.92
474.78
475.21
475.17
474.88
475.14
475.22
475.16
474.88
475.45
474.96
475.06
475.29
475.41
475.62
475.44
475.59
476.1
476.29
476.12
476.27
476.78
476.65
476.77
476.67
476.75
477
477.1
477.01
477.09
477.35
477.44
477.36
477.74
477.74
477.73
478.06
477.77
478.03
478.13
478.36
478.48
478.69
478.83
478.71
478.82
479.36
479.22
479.34
479.56
479.68
479.59
479.34
479.88
479.73
479.86
479.75
479.85
480.08
479.88
480.05
480.23
480.4
480.26
480.37
480.28
480.67
480.99
481.03
481
481.34
481.71
481.7
482.05
482.06
482.06
482.05
482.39
482.41
482.73
482.45
483.02
482.86
482.66
482.83
483.01
482.86
482.98
482.89
482.96
483.24
482.98
483.21
483.33
483.56
483.36
483.21
483.33
483.56
483.36
483.54
483.71
483.89
483.73
483.54
483.7
483.9
484.05
484.25
484.4
484.6
484.43
484.58
484.77
484.61
484.42
484.58
484.77
484.28
484.7
485.01
484.73
484.98
484.76
484.62
484.74
484.97
485.09
484.99
485.08
485.34
485.43
485.35
485.42
485.37
485.4
485.71
485.77
485.72
485.76
485.73
486.08
486.12
485.74
486.08
486.11
486.09
485.78
486.05
485.81
486.01
485.85
485.65
485.83
485.34
485.76
485.4
485.38
485.4
485.05
485.03
485.04
485.03
484.71
484.33
484
484.29
484.04
483.6
483.33
482.58
482.58
482.26
481.88
481.23
480.82
480.54
479.81
479.15
478.43
478.1
477.75
477.41
476.75
476.68
476.11
475.96
475.47
474.62
474.1
473.59
473.42
472.93
472.73
471.96
471.7
470.99
470.67
470.02
469.35
469.01
468.07
467.65
466.49
465.66
465.18
464.07
463.23
462.45
461.93
461.18
460.64
459.92
459.36
458.67
458.09
457.42
457.12
457.09
456.24
455.8
455.32
454.86
454.39
453.93
453.76
453.32
452.84
452.39
452.21
451.8
451.87
451.24
450.35
449.99
449.17
448.75
448.27
447.84
447.37
446.93
446.48
445.76
445.54
445.17
445.21
444.91
444.89
444.92
444.88
445.2
444.64
444.3
444.31
444.03
443.44
443.4
443.43
443.14
442.84
442.55
441.97
441.93
441.42
441.32
441.14
441.02
440.85
440.72
440.84
440.46
440.24
440.16
439.96
439.59
439.37
439.29
439.09
439
438.81
438.7
438.53
438.41
438.24
438.11
437.96
437.55
437.64
437.56
437.9
437.61
437.58
437.62
437.58
437.62
437.31
437.32
437.31
437.32
437.04
437.02
437.03
437.29
436.8
436.95
437.09
436.96
437.08
436.98
437.07
436.99
436.79
436.96
437.09
436.97
437.08
436.98
437.06
436.99
437.06
437.27
437.35
437.54
437.92
438.13
438.48
438.98
438.55
438.92
439.15
439.21
439.44
439.5
439.73
439.25
439.67
439.85
439.96
440.4
440.57
440.69
441.13
441.02
441.12
441.04
441.38
441.63
441.41
441.6
441.7
441.89
442
442.18
442.3
442.47
442.32
442.45
442.62
442.47
442.6
442.76
442.89
442.78
442.6
442.75
442.9
443.05
442.92
443.03
443.49
443.64
443.78
443.66
443.76
443.95
444.06
443.97
444.05
443.98
444.31
444.59
444.61
444.6
444.6
444.61
444.87
444.93
444.87
444.93
444.86
444.66
444.82
445.25
445.15
445.25
445.15
445.24
445.43
445.56
445.16
445.51
445.48
445.51
445.48
445.79
445.52
445.75
446.11
446.07
446.11
446.07
446.11
446.35
446.7
446.96
446.74
447.2
447.37
447.49
447.68
448.06
448.02
448.32
448.65
448.63
448.94
448.94
449.24
448.96
449.5
449.59
450.09
450.22
450.39
450.52
450.7
450.82
451
451.13
451.31
451.43
451.61
451.74
451.64
451.43
451.9
451.78
451.88
452.08
452.48
452.43
452.75
452.77
453.03
453.1
453.02
453.39
453.35
453.68
453.39
453.65
453.99
453.99
453.7
453.95
454.3
454.29
454.59
454.63
455.16
455.58
455.5
455.87
455.83
456.16
455.87
456.13
456.19
456.14
456.19
456.43
456.51
456.73
456.55
456.7
456.86
457.01
457.18
457.03
457.46
457.38
457.45
457.68
457.77
457.69
457.76
457.99
458.09
458
458.08
458.31
458.4
458.03
458.35
458.66
458.68
458.37
458.63
458.71
458.64
459
458.39
458.33
458.38
458.34
458.37
458.34
458.37
458.35
458.37
458.35
458.36
458.94
458.74
458.91
459.07
458.92
459.05
459.23
459.67
459.58
459.66
459.59
460.24
460.27
460.84
461.54
461.52
461.54
461.82
461.88
462.12
462.22
462.42
462.56
462.73
463.49
463.42
464.09
464.42
464.73
465.06
465.08
465.07
465.08
465.37
465.42
465.37
465.42
465.68
465.46
465.64
465.49
465.92
466.17
466.24
466.8
466.61
466.48
466.58
467.11
466.95
466.79
466.92
466.82
467.21
467.19
467.19
467.5
467.83
468.17
468.17
468.8
468.25
468.72
468.93
469.06
469.26
469.08
469.55
469.76
469.88
469.78
469.87
470.1
469.9
470.07
470.23
470.09
470.52
470.46
470.51
470.78
470.24
470.39
470.26
470.37
470.29
470.04
469.96
470.02
469.98
470
469.99
469.98
470.32
470.32
470.33
470.62
470.69
470.61
471.01
470.65
471.28
471.04
471.25
471.38
471.27
471.36
471.29
471.66
471.97
471.69
471.93
471.72
472.21
472.11
472.19
472.75
472.88
473.09
473.22
473.42
473.55
473.76
473.89
474.1
473.91
474.08
474.25
474.73
474.94
474.76
474.92
475.42
475.3
475.4
475.63
475.75
475.96
476.09
476.3
476.75
476.99
476.79
476.96
477.13
476.98
476.8
476.64
476.78
476.97
477.13
477.31
477.79
477.69
477.78
478.02
478.13
478.36
478.16
478.33
478.83
478.71
478.81
478.73
479.12
479.11
479.11
480.08
480.21
480.09
479.87
480.06
480.22
480.72
480.94
481.07
481.61
481.46
481.6
481.48
481.58
482.14
481.98
482.12
482.33
482.46
482.68
482.49
482.98
483.21
483.34
483.55
484.02
484.6
484.76
484.95
485.11
484.97
485.09
485.32
485.78
485.71
485.77
486.06
486.46
486.78
486.83
486.79
486.82
487.13
486.85
487.1
487.22
487.45
487.25
487.42
487.61
487.44
487.26
487.08
487.24
487.1
486.89
486.74
486.87
486.76
486.52
486.4
486.5
486.41
486.16
485.72
485.76
485.73
485.75
485.41
485.37
485.09
484.66
484.71
484.65
484.06
483.58
483.35
482.88
482.98
482.88
482.65
482.51
482.64
482.2
482.26
481.87
482.21
481.92
482.17
482.29
482.18
481.95
482.14
482.31
482.15
482.3
482.49
482.01
482.41
482.41
482.06
482.71
482.46
482.36
482.43
482.71
482.78
482.73
482.76
483.08
482.79
483.05
483.14
483.73
483.54
483.7
483.56
483.68
483.91
483.71
483.88
484.07
483.9
484.37
484.63
484.73
484.97
484.76
484.94
485.12
484.97
485.1
484.99
485.08
485.33
485.11
485.3
485.46
485.66
485.82
485.68
485.8
486.03
486.16
486.38
486.52
486.4
486.5
486.42
486.81
486.48
486.42
486.82
486.79
486.83
486.45
486.79
487.15
487.18
486.82
487.14
487.52
487.53
487.51
487.53
487.84
488.25
487.88
488.21
488.26
488.21
488.25
488.22
488.57
488.61
488.57
488.61
489.24
489.38
488.91
489.32
489.63
489.7
489.63
490.03
490.36
490.42
490.36
490.75
491.09
491.47
491.48
491.81
492.2
492.19
492.2
492.19
492.2
491.85
492.16
492.24
492.16
492.57
492.22
492.18
492.56
492.56
492.56
492.56
492.57
492.56
492.57
492.55
492.57
492.89
492.96
493.23
493.69
493.63
493.69
493.63
494.02
494.36
494.42
494.7
494.8
495.05
494.85
495.01
495.57
495.41
495.9
496.16
496.29
496.52
496.33
496.48
496.71
496.84
496.74
496.81
497.46
497.23
497.09
497.2
497.46
497.57
497.49
497.55
497.85
497.58
497.82
497.61
497.8
497.63
497.78
498
498.15
498.03
498.13
498.39
498.51
498.41
498.49
498.43
498.82
498.84
498.81
498.85
498.8
499.21
499.19
499.57
499.58
499.58
499.57
499.94
499.96
499.95
499.95
499.96
500.29
500.37
499.93
500.32
500.33
500.33
500.32
500.33
500.66
500.74
500.66
500.74
501.01
500.79
500.62
500.78
500.62
501.12
500.68
501.07
501.08
501.42
501.13
501.38
501.53
501.39
501.51
501.75
501.91
501.41
501.85
501.82
502.19
501.87
501.79
501.87
502.15
501.91
501.41
501.85
501.82
501.85
501.47
501.44
501.47
501.44
501.47
501.79
501.87
501.79
501.87
501.8
501.87
501.8
501.86
501.8
501.86
501.8
501.86
502.16
502.26
501.81
502.2
502.57
502.61
502.57
502.61
502.57
502.6
502.57
502.6
502.93
502.65
502.88
502.69
502.84
503.08
502.86
503.07
502.87
503.41
503.29
503.39
503.3
503.74
503.37
503.33
503.37
503.68
503.42
503.28
503.77
503.69
503.76
503.69
504.12
504.1
503.76
504.05
504.17
504.05
504.16
504.06
504.51
504.47
504.51
504.47
504.51
504.47
504.86
504.53
504.81
504.93
504.82
504.92
504.83
505.27
505.6
505.67
505.61
505.66
505.61
506.02
506.03
506.01
506.39
506.06
506.34
506.82
506.76
506.82
506.77
506.81
507.13
507.22
507.14
507.57
507.56
507.56
507.56
507.56
507.93
507.97
507.93
507.96
508.3
508.37
507.95
508.31
508.36
508.31
508.36
507.95
508.67
508.78
508.68
508.77
509.05
509.17
509.06
509.16
509.07
509.15
509.08
509.14
509.09
508.77
508.68
509.12
508.74
508.71
508.74
508.7
508.74
508.34
508.69
508.75
508.7
508.75
508.34
507.97
507.93
507.96
507.94
507.96
507.94
507.95
507.95
508.31
508.72
508.37
508.67
508.41
508.27
508.4
508.28
508.39
508.65
508.43
508.61
508.83
508.63
508.81
508.65
508.79
508.66
508.78
508.68
508.77
509.05
508.81
508.65
509.15
509.44
509.19
509.04
509.54
509.47
509.16
509.07
509.51
509.5
509.51
509.5
509.5
509.87
509.54
509.83
509.95
509.84
509.57
509.44
509.92
509.51
509.49
509.51
509.49
509.52
509.48
509.52
509.48
509.16
509.43
509.57
509.43
509.21
509.02
509.2
509.03
509.19
509.04
509.54
509.47
509.17
509.06
509.16
509.43
509.21
509.02
509.19
509.04
509.18
509.05
509.17
509.06
509.52
509.13
509.1
509.13
509.46
509.19
509.04
509.18
509.41
509.23
509.37
509.63
509.38
509.61
509.4
509.6
509.05
509.54
509.47
509.17
509.06
509.52
509.12
509.11
509.12
509.11
509.48
509.52
509.49
509.52
509.13
509.46
509.54
509.47
509.53
509.47
509.17
509.06
509.16
509.07
509.16
509.07
509.15
509.08
509.14
509.09
508.78
509.04
508.82
508.64
508.81
508.65
508.79
508.66
508.78
508.68
508.77
508.69
508.76
508.69
508.75
509.06
508.79
508.66
509.14
509.09
508.77
508.68
508.76
508.69
508.75
508.7
508.74
509.07
508.79
509.03
508.83
509
508.86
508.6
509.2
509.04
508.82
509
508.49
508.92
508.92
508.54
509.25
508.63
508.81
508.65
508.79
509.04
508.82
509.01
508.85
509.34
509.28
508.96
509.61
509.77
510
509.8
510.33
510.61
510.36
510.58
510.76
510.97
510.78
510.94
511.17
510.97
511.14
511
511.48
511.44
511.1
511.4
511.13
511.37
511.53
511.4
511.87
511.47
511.44
511.85
511.84
511.86
511.47
511.82
511.87
511.83
511.86
512.21
512.27
512.96
512.73
512.93
513.12
512.95
512.73
512.92
513.13
513.31
513.16
513.28
513.19
513.26
513.58
513.29
513.91
513.74
513.52
513.34
513.87
513.79
513.48
513.75
513.88
514.14
514.29
514.16
514.27
514.54
514.31
514.14
514.28
514.53
514.32
514.13
514.3
514.15
514.28
514.17
514.26
514.19
514.24
514.2
514.23
514.21
513.85
514.17
514.26
514.18
513.88
514.14
514.29
514.53
514.32
514.12
514.3
514.15
514.28
514.16
514.27
514.55
514.3
514.14
514.29
514.53
514.32
514.5
514.72
514.52
514.7
514.54
514.68
514.56
514.66
514.95
515.07
514.96
514.68
514.93
515.09
514.95
514.7
514.54
514.68
514.93
514.72
514.53
514.69
514.92
515.1
514.57
515.02
515.01
514.64
514.96
515.05
514.98
515.04
515.36
515.45
515.38
515.07
515.71
515.53
515.68
515.93
515.7
515.9
516.1
515.94
516.07
516.7
516.53
516.68
516.55
516.66
516.94
516.7
516.91
517.1
516.93
517.45
517.75
517.49
517.72
517.9
518.12
518.68
518.94
519.09
519.34
519.12
519.31
519.53
519.34
519.5
519.74
519.54
519.71
519.57
519.3
519.91
519.76
519.89
520.16
519.92
520.13
519.95
519.72
519.92
519.75
519.9
519.77
519.88
519.79
519.86
519.81
519.47
519.77
519.88
519.79
519.86
519.81
519.85
519.82
519.46
519.78
519.5
519.74
519.91
519.76
519.89
520.16
519.93
519.75
519.91
520.15
519.94
520.11
519.97
520.09
520.37
520.12
520.34
520.52
520.37
520.12
520.34
520.52
520.37
520.12
520.72
520.58
520.32
520.17
520.67
520.24
520.23
520.25
520.22
520.64
520.64
520.65
520.26
520.6
520.68
520.62
520.66
520.63
520.65
520.64
520.64
520.65
520.64
520.65
521.01
521.09
521.01
521.09
521.01
521.09
520.63
521.03
521.44
521.47
521.06
521.42
521.49
521.43
521.49
521.81
521.92
521.82
521.53
521.4
521.9
521.84
521.51
521.41
521.88
521.85
521.88
521.86
521.88
522.24
521.93
522.19
521.97
521.77
521.96
522.16
522.38
521.8
522.31
522.25
522.3
522.26
522.29
522.26
522.29
522.65
522.34
522.22
522.71
522.67
522.32
522.24
521.93
521.81
521.92
521.82
521.9
521.45
521.46
521.46
521.46
521.46
521.07
521.03
521.07
521.04
520.3
520.18
519.91
519.76
519.14
518.91
518.75
518.12
517.55
516.91
516.35
516.08
515.21
514.83
514.07
512.49
512.03
511.32
511.21
510.57
510.04
509.76
508.92
508.19
507.39
506.63
506.22
505.49
504.7
503.95
504.25
503.28
502.34
501.04
500.4
499.57
498.19
497.3
496.33
495.11
493.42
492.17
491.55
490.41
489.36
488.27
486.87
485.77
484.72
484
483.3
481.96
480.83
480.53
479.8
479.48
478.78
478.12
477.4
476.76
475.71
475.05
474.04
473.35
472.37
471.66
470.71
469.68
468.72
467.71
466.44
465.11
463.83
463.13
462.24
461.82
460.69
459.58
459.07
458.33
457.8
457.38
457.16
456.18
455.57
455.52
454.69
454.24
453.77
453.02
452.81
452.42
452.19
451.81
451.57
451.21
450.95
450.6
450.62
450.32
450.29
450.04
449.97
450.32
450.01
450.28
450.33
450
450.29
450.89
450.94
451.75
452.2
452.37
452.23
452.34
452.83
452.69
452.82
452.7
452.81
452.99
453.13
453.29
453.44
453.59
454.05
453.94
454.61
454.89
454.94
455.19
455.26
455.49
455.59
455.79
455.91
456.38
456.85
456.73
457.13
457.37
457.45
457.67
458.07
458.31
458.69
458.95
459.02
459.26
459.35
459.57
459.67
459.88
460.29
460.23
460.28
460.53
460.61
460.84
460.94
460.86
460.92
461.17
460.96
461.14
461.28
461.15
461.56
461.51
461.85
461.56
461.8
461.9
462.1
462.24
462.1
462.54
462.45
462.84
463.09
463.48
463.43
463.48
463.43
463.78
463.78
464.08
464.12
464.09
464.41
464.44
464.41
464.74
464.76
465.04
464.8
465.01
465.14
465.02
465.12
465.33
465.46
465.34
465.75
465.7
465.75
466.01
466.09
466.01
466.38
466.37
466.38
466.37
466.38
466.37
466.37
466.38
466.68
466.42
466.63
466.76
466.95
467.1
466.96
467.4
467.32
467.39
467.32
467.39
467.63
468.03
467.69
467.98
468.04
467.99
468.04
467.99
468.04
468.29
468.08
467.95
468.38
468.31
468.07
468.27
468.41
468.58
468.45
468.55
468.48
468.22
468.76
468.58
468.75
468.6
468.73
468.61
468.72
468.93
468.75
468.59
469.05
468.96
469.03
468.97
469.02
468.98
469.02
469.29
469.67
469.35
469.62
469.7
469.62
470.01
469.97
470.01
469.97
470.01
469.97
470.02
470.27
470.68
470.32
470.32
470.63
470.37
470.58
470.72
470.59
470.41
470.55
470.75
470.57
470.43
470.84
471.12
470.55
471.06
470.61
471.31
471.02
471.26
471.06
470.91
471.37
471.28
471.67
471.32
471.63
471.68
471.94
471.72
471.6
472.02
471.96
472.01
471.97
471.69
472.24
472.08
472.21
472.11
472.19
472.13
472.17
472.46
472.5
472.48
472.49
472.81
472.52
472.78
472.86
472.8
473.16
473.48
473.19
473.45
473.54
473.78
473.56
473.44
473.55
473.45
473.22
473.73
473.61
473.71
473.63
473.69
473.65
473.36
473.31
473.65
473.68
473.64
473.7
473.94
473.75
473.58
474.06
473.94
474.07
473.94
474.07
473.94
474.38
474.3
474.38
473.98
474.65
474.38
474.61
474.73
474.63
474.72
474.96
475.07
475.28
475.42
475.61
475.76
475.63
475.75
475.64
475.74
475.65
475.73
475.66
476.03
476.35
476.07
476.31
476.74
476.68
476.74
477.01
477.09
477.65
477.81
477.67
478.12
477.73
477.43
477.69
477.78
477.69
477.46
477.66
477.49
477.63
477.84
477.96
478.19
478.3
478.53
478.64
478.88
478.66
478.86
478.68
478.84
479.02
478.87
478.67
479.17
479.06
479.16
479.07
479.14
479.4
479.18
479.69
479.9
479.72
479.88
479.73
480.18
480.12
480.17
480.13
480.48
480.51
480.15
480.15
480.46
480.52
480.14
480.48
480.5
480.81
480.54
480.45
480.53
480.79
480.89
480.8
480.87
480.81
480.86
481.14
481.22
481.16
481.21
481.17
481.52
481.54
481.2
481.5
481.56
481.51
481.23
481.15
481.54
481.53
481.21
481.17
481.2
481.5
481.24
481.14
481.55
481.52
481.55
481.52
481.86
481.9
481.86
482.23
482.23
482.23
482.55
482.6
482.88
482.98
482.56
482.92
482.93
482.6
482.56
482.92
482.93
483.25
482.98
483.21
483.34
482.89
482.64
482.53
482.95
483.23
483
482.87
482.66
482.83
482.69
482.47
483
482.54
482.62
482.87
482.98
482.88
482.97
483.22
483.01
483.18
483.37
483.2
483.35
482.89
483.29
483.27
483.28
483.6
483.32
483.24
483.31
483.58
483.35
483.54
483.71
483.56
483.69
483.57
484
483.64
483.62
483.97
483.99
483.98
483.66
483.93
484.35
483.99
484.29
484.37
484.62
485.08
484.34
484.65
484.71
484.99
484.75
484.62
485.07
485.01
484.73
484.97
485.09
485.32
485.46
485.33
485.77
485.72
485.43
485.68
486.13
486.4
486.17
486.37
486.53
486.71
486.56
486.69
486.92
487.04
487.27
487.39
487.96
487.8
487.94
487.82
487.93
488.17
488.29
488.18
488.28
488.2
488.26
488.21
488.25
488.56
488.29
488.19
488.27
488.2
488.26
488.21
488.25
488.22
488.24
488.23
488.56
488.62
488.23
488.57
488.6
488.92
488.64
488.88
488.68
489.18
489.09
489.16
489.45
489.18
489.42
489.54
489.78
489.57
489.42
489.54
489.78
489.9
489.81
489.55
489.78
489.57
489.42
489.21
489.73
489.62
489.37
489.25
489.35
489.27
489
489.24
489.03
489.21
489.06
489.19
489.42
489.21
489.39
489.24
489.37
489.26
489.02
489.23
489.38
489.25
489.36
489.27
489.34
489.62
489.37
489.25
489.35
489.61
489.39
489.24
489.7
489.64
489.68
489.66
490.01
490.05
489.67
490.01
490.04
489.69
489.98
490.07
489.98
490.41
490.03
490.36
490.41
490.37
490.4
490.38
490.39
490.39
490.39
490.73
490.43
490.68
490.81
490.7
491.13
491.09
490.79
491.05
491.17
491.4
491.2
491.03
491.52
491.43
491.51
491.77
491.55
491.74
491.93
492.09
492.3
491.77
492.23
492.51
492.61
492.52
492.6
492.53
492.59
492.54
492.58
492.89
492.62
492.85
492.66
492.47
492.98
492.88
492.63
492.84
493
492.86
492.99
492.87
492.97
493.23
493.35
493.24
493.34
493.25
493.32
493.26
493.31
493.27
493.3
493.62
493.68
493.63
494.02
494.03
494.01
494.04
494.01
494.04
494.34
494.43
494.35
494.43
494.69
494.82
494.69
494.81
494.7
494.81
494.71
494.8
495.05
494.85
494.67
494.83
495.02
495.21
494.7
495.15
495.1
495.15
495.1
495.48
495.5
495.48
495.16
495.43
495.21
495.39
495.59
495.4
495.58
495.75
495.62
495.72
495.99
495.74
495.97
495.75
496.3
496.16
496.29
496.52
496.67
496.53
496.66
496.54
496.99
496.95
496.98
496.96
496.98
496.96
496.97
497.31
497.36
497.32
497.36
497.33
497.35
497.68
497.74
498.03
498.13
498.39
498.51
498.4
498.85
498.81
498.84
499.17
498.88
498.78
498.87
498.79
498.86
498.8
498.85
498.81
498.84
498.82
498.83
498.83
499.17
499.23
499.17
499.23
499.17
499.23
499.17
499.58
499.57
499.23
499.52
499.63
499.52
499.98
499.58
499.92
499.97
499.93
499.97
500.28
500.71
500.34
500.31
500.69
500.36
500.64
500.75
500.65
500.75
500.66
501.09
501.07
500.73
500.67
500.73
501.03
501.12
501.04
501.12
501.39
501.16
501.35
501.55
501.37
501.88
501.79
501.52
501.75
501.91
502.11
502.3
502.48
502.68
502.5
503.02
502.92
503.01
502.93
503
503.3
503.04
503.26
503.43
503.63
504.17
504.41
504.2
504.38
504.59
504.4
504.57
504.78
505.31
505.56
505.35
505.17
505.68
505.24
505.62
505.66
505.61
506.02
505.66
505.98
505.7
505.94
506.09
506.32
506.48
506.34
506.46
506.36
506.81
506.42
506.39
506.79
506.79
507.15
506.84
507.11
507.23
507.13
507.22
507.5
507.26
507.11
507.6
507.53
507.59
507.9
507.99
507.92
508.33
507.98
507.56
507.93
507.96
507.94
507.95
507.95
507.95
507.95
507.94
507.96
507.94
507.96
507.94
507.96
507.94
507.96
507.94
508.32
507.99
508.28
508.03
507.87
508.38
508.3
508.37
508.31
508.36
508.67
508.77
509.04
508.81
509
509.21
509.02
509.2
509.04
509.18
509.05
509.17
509.43
509.21
509.39
509.61
509.77
509.64
509.38
509.98
509.82
509.96
509.83
510.31
510.26
510.66
510.32
510.6
510.74
510.97
510.79
510.93
511.2
511.31
511.23
511.27
511.63
511.3
511.61
511.68
512
512.07
512.03
512.05
512.06
512.03
512.44
512.06
512.77
512.51
512.38
512.49
512.77
512.89
512.79
512.5
512.76
512.9
512.78
512.88
513.17
513.28
513.56
513.31
513.52
513.35
513.86
513.79
513.84
513.82
513.82
514.2
514.23
514.22
514.21
514.24
514.19
514.62
514.61
515
515.39
515.44
515.38
515.45
515.74
515.88
515.37
515.83
515.79
516.21
515.83
515.79
516.19
516.23
516.19
516.61
516.61
516.99
516.65
516.57
516.64
516.58
516.63
516.96
516.68
516.55
516.29
516.51
516.33
516.47
516.73
516.13
516.28
516.51
516.32
516.48
516.73
516.5
516.7
516.52
516.69
516.54
516.67
516.56
516.65
516.94
516.7
516.9
517.1
516.92
516.71
516.89
517.12
516.91
517.1
517.31
516.76
516.85
517.16
517.25
517.56
517.28
517.15
517.25
517.55
517.28
517.52
517.31
517.5
517.71
517.53
517.31
517.87
517.76
517.85
517.78
517.84
518.17
517.88
517.76
518.23
518.21
518.22
518.22
518.58
518.66
518.95
519.47
519.76
519.9
519.76
519.9
520.14
520.33
520.15
520.32
520.53
520.75
520.54
520.74
520.93
521.16
521.33
521.58
521.35
522.32
522.23
522.31
522.62
522.74
522.63
522.73
523.03
523.15
523.04
523.52
523.49
523.9
523.94
523.9
524.32
524.33
523.95
524.27
524.39
524.66
524.82
524.66
525.2
525.11
525.2
525.11
525.2
525.5
525.25
525.45
525.3
525.79
526.16
525.82
526.52
526.28
526.51
526.3
526.88
526.37
526.42
526.77
526.86
526.78
526.85
526.78
526.84
526.79
526.45
526.36
526.43
526.37
526.43
526.38
526.42
526.38
526.41
526.39
526.4
526.79
526.45
526.74
526.88
527.14
526.92
527.1
526.96
527.07
527.37
527.1
527.35
527.13
527.32
527.54
527.74
527.57
527.33
527.92
528.2
527.95
527.78
527.92
528.19
528.35
528.22
528.32
528.63
528.36
528.59
528.39
528.95
528.87
528.54
528.44
528.91
528.91
528.5
528.48
528.87
528.94
528.86
528.95
528.86
529.35
528.91
529.3
529.34
529.31
529.33
529.72
529.37
530.07
529.86
529.64
530.23
529.72
530.15
530.18
530.54
530.25
530.09
530.24
530.09
530.63
530.55
530.63
530.15
530.97
530.66
530.92
530.7
530.48
530.68
530.5
531.06
531.36
531.11
530.92
531.48
531.39
531.08
531.34
531.52
531.36
531.5
531.77
531.94
531.78
531.93
531.8
531.91
531.42
531.84
531.87
531.84
531.88
531.45
531.43
531.84
531.49
531.39
531.48
531.39
531.48
531
531.42
531.45
531.42
531.45
531.42
531.45
531.03
531.39
531.48
531.39
531.87
531.46
531.81
531.91
531.81
531.9
531.82
531.89
531.83
531.89
531.83
532.28
532.29
532.28
532.29
532.28
532.29
531.89
532.23
532.33
532.24
532.33
532.24
532.32
532.25
531.92
532.2
532.36
532.21
532.35
532.22
532.73
532.69
532.33
532.24
532.32
532.64
532.37
532.2
532.75
532.28
532.29
532.68
532.34
532.63
532.38
532.59
532.82
532.61
532.8
532.63
533.18
533.1
532.77
532.66
533.15
533.13
533.14
532.74
533.07
533.2
532.68
533.14
533.13
533.14
533.12
533.15
533.12
533.55
533.17
533.5
533.62
533.51
533.21
533.47
533.65
533.88
533.69
533.45
533.66
533.47
533.24
533.83
533.73
533.8
533.76
533.38
534.12
533.87
533.69
533.84
533.72
533.81
533.75
533.79
533.77
533.38
533.72
533.42
533.29
533.39
533.31
532.98
533.27
533.02
533.23
533.45
533.66
533.48
533.23
533.45
533.65
533.48
533.62
533.51
533.6
533.54
533.58
533.56
533.56
533.57
533.54
533.59
533.93
534.05
533.53
534
533.97
534.01
533.57
533.96
534.01
533.57
533.54
533.98
533.99
533.99
533.59
533.94
534.03
534.35
533.68
533.85
534.11
533.88
533.69
533.84
534.12
533.47
534.04
533.95
534.02
533.56
533.95
534.02
533.95
534.03
533.95
534.03
534.35
534.08
534.3
534.53
534.31
534.51
533.93
534.44
534.39
534.44
534.4
534.43
534.4
534.43
534.4
534.82
534.47
534.37
534.86
534.83
534.86
534.43
534.81
534.88
534.81
534.87
534.82
534.86
535.23
535.32
535.24
534.91
535.19
535.35
535.21
535.33
535.23
535.32
535.64
535.76
535.25
535.69
535.72
535.68
535.73
535.68
536.13
536.14
535.74
536.07
535.8
536.02
535.85
535.97
536.29
535.99
536.27
536.41
536.31
535.97
536.29
535.59
536.21
536.07
535.79
535.23
535.72
535.69
535.71
535.3
535.65
535.76
535.65
535.36
535.2
535.75
535.66
535.75
535.26
535.69
535.72
535.69
535.71
535.7
535.71
535.7
535.7
535.71
535.7
535.71
535.7
535.71
536.1
536.17
535.7
536.11
536.15
535.72
536.09
536.18
536.09
536.18
536.09
536.17
536.1
536.17
536.1
536.17
536.51
536.22
536.05
536.61
536.12
536.55
536.18
536.49
536.63
536.1
536.57
536.57
536.57
536.57
536.16
536.51
536.62
536.52
536.61
536.53
536.6
536.53
536.6
536.54
537
537
536.59
536.54
536.59
536.95
537.05
536.55
536.98
537.02
536.98
537.02
536.98
537.01
536.99
537.42
537.45
537.42
537.04
537.36
537.5
537.37
537.49
537.38
537.48
537.79
537.53
537.75
537.57
537.71
538.01
537.73
537.99
537.76
537.97
537.78
538.35
538.26
538.34
538.27
538.33
538.28
538.31
538.29
538.31
538.7
538.76
538.71
538.75
538.32
538.68
538.38
538.63
538.84
538.64
538.83
538.24
538.76
538.71
538.35
538.25
538.35
538.25
538.35
538.26
538.34
538.26
538.34
538.27
538.33
538.27
538.33
538.27
538.32
538.68
538.38
538.23
538.77
538.7
538.36
538.25
538.75
538.72
538.34
538.67
538.8
538.68
538.79
538.69
539.18
539.16
538.77
539.11
538.82
539.07
539.26
538.68
538.78
539.1
539.23
539.12
538.81
539.07
538.85
539.04
539.29
539.06
539.27
539.09
539.24
539.11
539.22
539.13
538.8
539.08
539.25
539.11
539.23
539.13
539.21
539.14
539.19
539.16
539.18
539.17
539.57
539.64
539.16
539.59
539.62
540.01
539.67
539.56
540.06
540.04
539.64
539.58
540.03
540.06
539.62
540
540.08
540.02
540.07
540.03
540.46
540.09
539.99
540.09
540
540.5
540.46
540.09
540
540.5
540.06
540.44
540.52
540.45
540.51
540.45
540.92
540.93
540.51
540.46
540.91
540.52
540.44
540.52
540.04
540.46
540.1
540.4
540.56
540
540.08
540.01
540.08
540.42
540.13
540.37
540.18
539.92
540.16
540.35
540.2
540.31
540.23
540.28
540.26
540.25
540.69
540.29
540.66
540.32
540.63
540.35
540.19
540.73
540.69
540.3
540.65
540.34
540.61
540.37
540.58
540.81
540.61
540.37
540.58
540.81
540.61
540.37
540.99
540.87
540.55
540.42
540.53
540.86
540.56
540.41
540.95
540.9
540.52
540.86
540.97
540.48
540.89
540.96
540.88
540.97
540.87
541.38
540.92
540.93
540.91
541.34
541.37
541.36
540.95
541.31
540.99
541.27
541.03
541.23
541.48
541.26
541.45
541.28
541.43
541.71
541.88
541.73
541.45
541.69
541.89
541.72
541.46
541.68
541.91
541.71
541.88
541.73
541.86
541.75
541.84
542.18
541.89
542.14
541.92
542.1
541.96
541.66
542.34
542.16
542.31
542.18
542.29
542.2
542.27
542.21
542.67
542.7
542.25
542.23
542.24
542.65
542.29
542.19
542.28
542.21
541.86
541.75
541.84
541.76
541.83
541.77
541.82
541.78
541.81
541.79
541.4
541.74
541.85
541.75
541.84
541.76
541.83
541.77
541.82
541.78
541.82
541.79
541.81
542.2
541.86
541.74
541.85
541.75
541.84
541.76
541.83
542.18
541.88
541.72
541.87
542.15
541.91
541.7
542.3
542.18
541.88
542.14
541.92
541.69
541.9
541.71
541.88
542.14
541.92
541.69
541.9
542.12
541.94
541.68
542.32
542.17
541.89
541.72
541.87
542.15
541.91
542.11
541.94
542.08
542.38
542.12
542.35
542.56
541.97
542.06
542.41
542.09
542.37
542.13
542.34
542.16
542.31
542.18
542.29
542.21
542.26
542.23
542.66
542.3
542.18
542.72
542.64
542.73
542.22
542.67
542.27
542.62
542.73
542.64
542.71
543.07
542.35
542.56
542.79
542.58
542.77
542.61
542.75
543.04
542.79
543
543.23
543.03
543.21
543.05
543.19
543.07
543.17
543.09
543.15
543.1
543.14
543.12
543.54
543.6
543.12
543.54
543.59
543.55
543.17
543.09
543.57
543.57
543.15
543.1
543.14
543.11
542.72
542.65
542.71
542.66
542.7
542.67
542.7
542.67
542.69
542.68
542.69
542.68
542.68
542.68
542.68
542.69
542.68
542.69
542.68
542.69
542.68
542.69
543.09
542.75
542.62
542.74
543.04
543.2
542.64
542.72
542.65
543.12
542.72
542.65
542.71
543.06
542.77
542.6
543.17
542.67
542.7
542.67
542.7
542.67
542.7
543.08
543.17
542.67
542.69
543.08
543.16
542.68
542.69
543.09
543.16
543.09
542.74
543.04
543.2
543.05
542.78
543
543.24
542.61
543.16
543.09
543.15
543.51
543.2
543.05
543.19
543.07
543.18
543.49
543.22
543.03
543.2
543.46
543.66
543.49
543.64
543.5
543.62
543.52
543.61
543.53
543.59
543.55
543.58
543.56
543.57
543.98
543.62
543.93
544.08
543.95
544.06
543.97
544.05
543.98
544.03
543.99
544.43
544.06
543.96
544.07
543.96
544.07
543.96
544.48
544.43
544.48
544.01
544.01
544.42
544.49
544.01
544.01
544.42
544.49
544.42
544.49
544.42
544.49
544.42
544.48
544.42
544.48
544.01
544.01
544.01
543.6
543.95
544.06
543.96
544.47
543.62
543.93
543.67
543.47
543.66
543.48
543.65
543.91
544.11
543.51
543.62
543.93
543.67
543.88
543.72
543.84
544.17
543.87
544.14
543.89
544.12
543.91
544.1
544.34
544.14
543.89
544.53
544.39
544.1
543.93
544.08
543.95
544.06
543.97
544.05
543.98
544.03
544.41
544.08
543.95
544.07
543.96
544.05
544.39
544.51
544.41
544.08
544.36
544.54
544.38
544.52
544.4
544.5
544.83
544.54
544.79
544.58
544.76
544.61
544.31
544.58
544.34
544.55
544.37
544.94
544.87
544.92
544.88
544.91
544.9
544.9
544.91
544.89
544.92
545.29
545.4
544.87
545.34
545.34
545.35
545.34
545.36
545.33
545.36
545.32
545.78
545.38
545.73
545.43
545.27
545.83
545.76
545.82
545.77
545.81
545.78
545.8
545.79
545.79
545.79
546.21
546.27
545.79
546.21
545.85
546.16
546.31
545.76
545.82
546.18
545.88
545.71
545.86
545.73
545.85
545.74
545.42
545.27
545.83
545.76
545.82
545.77
545.81
545.78
545.8
545.78
545.8
545.79
545.8
545.79
545.79
545.79
545.79
545.79
546.2
546.27
545.79
545.79
545.79
546.21
545.85
546.16
546.32
546.17
546.3
546.18
545.88
546.13
546.34
546.15
546.32
546.16
546.31
546.18
546.29
546.19
546.28
546.2
546.69
546.27
546.21
546.27
546.21
546.27
546.21
546.27
546.63
546.33
546.16
546.32
546.16
546.31
546.17
546.3
546.18
546.71
546.25
546.65
546.72
546.24
546.66
546.3
546.6
546.35
546.56
546.81
546.57
546.79
546.59
546.77
546.61
546.76
546.62
546.74
546.64
546.73
546.65
546.72
546.66
546.71
546.67
546.7
546.68
546.69
547.1
