756.21
755.96
756.18
755.98
756.4
756.28
756.14
756.02
756.37
756.56
756.15
756.01
756.37
756.55
756.15
756.01
756.14
756.27
756.15
756.25
755.93
756.2
756.21
756.2
756.46
755.99
756.16
756.25
756.66
756.55
756.4
756.53
756.65
756.8
756.67
756.54
756.89
757.08
756.67
756.78
756.69
756.77
756.7
756.51
756.67
757.02
756.72
756.73
756.97
757.01
756.74
756.96
757.02
756.96
757.02
756.96
757.02
756.96
757.02
756.96
757.26
756.76
757.19
757.31
757.2
757.3
757.21
757.05
757.42
757.6
757.19
757.06
757.41
757.36
756.91
757.07
757.17
757.09
756.9
756.83
756.64
756.81
756.66
756.79
756.67
757.02
756.72
756.73
757.21
756.55
756.88
756.85
757.11
757.14
756.86
757.11
757.12
757.12
757.12
757.13
757.35
757.42
757.1
757.38
757.38
757.63
757.17
757.33
757.68
757.62
757.18
757.31
757.69
757.6
757.19
757.3
757.21
757.28
757.23
757.26
757.25
757.25
757.26
757.24
757.51
757.02
757.21
757.28
757.47
757.3
757.21
757.29
757.47
757.06
757.41
757.6
757.68
757.37
757.39
757.62
757.66
757.39
757.62
757.67
757.62
757.92
757.65
757.88
757.92
758.14
757.71
757.83
758.22
757.88
757.93
758.13
758.2
758.14
757.95
758.11
757.97
758.09
757.99
758.07
758.26
757.84
757.72
758.07
758.26
757.84
758.21
758.38
758.23
758.11
758.22
758.37
758.24
758.35
758.26
758.09
758.24
758.35
758.26
758.33
758.51
758.36
758.49
758.37
758.72
757.94
758.12
758.22
757.87
757.94
757.38
757.39
757.37
757.15
756.85
756.63
756.32
756.84
755.9
755.98
755.92
755.96
755.45
755.4
755.46
755.15
755.19
755.14
755.44
755.17
754.93
754.88
755.17
755.16
755.18
754.91
755.15
754.94
754.88
754.69
754.85
754.47
754.56
754.73
754.57
754.47
754.31
754.21
754.29
753.99
754
754
753.75
753.26
753.43
753.54
753.18
753.02
751.7
751.17
750.66
750.63
749.94
749.82
749.92
749.83
749.43
749.3
749.42
749.08
748.89
749.05
748.68
748.76
748.69
748.51
748.67
748.76
748.45
748.48
748.23
748.19
748.24
748.19
748.24
747.94
748.21
748.21
748.22
748.2
748.23
747.96
748.43
748.5
748.21
747.98
748.42
748.28
748.16
748.26
748.17
748.25
748.42
748.27
748.16
748.02
748.14
748.28
748.15
748.27
747.93
747.98
747.94
747.97
747.95
747.49
747.65
747.75
747.66
747.27
747.84
747.59
747.79
747.4
747.48
747.43
746.98
747.15
746.98
746.91
746.48
746.63
746.25
746.36
746.02
745.85
745.28
745.3
744.57
744.26
743.82
743.49
743.08
742.5
741.83
741.47
741.55
741.71
741.58
741.45
741.34
741.19
741.32
740.97
740.58
740.45
739.87
739.2
738.63
737.95
737.85
737.47
736.88
736.69
736.17
735.92
735.69
734.95
734.68
734.45
734.2
733.72
733.69
733.02
732.46
731.35
731.17
730.87
730.45
730.14
729.72
729.63
729.26
728.9
728.76
728.21
728.01
727.28
726.78
726.33
725.81
725.82
725.58
725.57
725.57
725.58
725.57
725.8
725.59
725.56
725.36
725.53
725.38
725.29
725.37
725.08
725.33
725.34
725.32
725.34
725.1
725.32
725.35
725.32
725.12
725.52
725.4
725.5
725.41
725.48
725.88
725.98
726.34
726.92
727.55
728.12
728.53
728.85
729.71
730.1
730.44
730.37
730.88
730.9
730.88
731.36
731.62
732.08
732.13
732.55
732.87
733.05
733.12
733.29
733.6
733.33
733.56
733.83
734.05
734.32
734.54
734.81
734.8
735.05
734.83
735.02
735.31
735.29
735.31
735.52
735.57
735.99
736.32
736.72
737.3
737.26
737.52
737.53
737.98
737.83
737.72
738.05
738.22
738.55
738.26
738.74
738.79
738.51
738.75
738.78
738.98
739.28
739.25
739.27
739.48
739.77
739.75
739.77
740.45
740.56
740.69
740.82
741.17
741.58
741.92
742.1
742.17
742.59
742.69
743.31
743
743.73
744.75
745.28
745.77
746.29
746.32
746.29
746.56
746.79
746.84
746.79
746.6
746.52
746.6
746.28
746.33
746.28
746.33
746.05
746.29
746.31
746.3
746.07
746.03
746.3
746.54
746.1
746.01
745.85
746.22
746.15
746.2
746.64
746.49
746.39
746.23
746.61
746.52
746.36
746.73
746.65
746.47
746.63
746.73
746.89
746.74
746.64
746.73
746.89
746.74
746.87
746.52
746.59
747.01
746.88
746.99
746.9
746.97
746.91
746.72
747.13
747.25
747.38
747.27
747.13
747.49
747.42
747.47
747.91
747.53
747.62
747.54
747.6
747.56
747.12
747.26
746.9
747.21
746.94
746.7
746.92
746.96
746.93
746.95
746.93
746.7
746.91
746.49
746.85
747.02
746.63
746.73
747.12
747.26
746.9
746.74
746.87
747
747.12
747.02
746.87
747.24
747.16
747.23
747.4
747.01
747.11
747.27
747.36
747.28
747.11
747.27
747.6
747.56
747.35
747.53
747.37
747.52
747.15
747.47
747.44
747.46
747.45
747.21
747.66
747.51
747.4
747.26
747.14
747.72
747.46
747.44
747.94
747.74
747.68
747.73
747.92
747.99
747.7
747.71
747.94
747.97
748.18
748
748.16
748.26
748.17
748.49
748.69
748.75
748.94
748.78
749.15
749.31
748.93
749.26
749.45
749.05
749.16
749.07
749.38
749.6
749.16
749.3
749.18
749.53
749.7
749.79
749.71
750.02
750
749.77
750.21
750.07
749.95
750.05
750.2
750.08
749.94
750.06
750.19
750.32
749.97
750.27
750.26
750.02
749.99
749.78
750.2
750.07
749.94
750.06
750.2
750.08
749.94
750.06
750.19
749.6
749.87
750.13
750.13
750.38
750.16
750.59
750.69
750.61
750.44
750.82
751.21
751.12
750.96
751.1
750.98
751.08
751.23
751.1
751.69
751.66
751.44
751.63
751.47
751.85
752
751.87
752.22
752.4
752.01
752.1
752.02
752.33
752.31
752.32
752.32
752.55
752.85
752.58
753.06
753.12
753.07
752.87
753.29
752.68
752.96
753.21
753.23
753.22
752.98
753.44
753.28
753.42
753.29
753.16
753.52
753.45
753.27
753.43
753.53
753.68
753.55
753.42
754.01
753.75
753.73
753.76
753.96
754.04
753.72
754
754.23
754.28
753.99
754.25
754.5
754.53
754.5
754.54
754.74
754.81
754.5
754.53
754.26
754.74
754.57
754.96
754.63
754.9
754.92
754.89
755.18
754.67
754.88
754.93
755.13
754.95
755.12
755.21
755.38
755.23
755.12
755.21
755.62
755.5
755.36
755.24
755.59
755.53
755.58
755.54
755.81
755.83
755.32
755.52
755.35
754.77
755.02
755.29
755.05
755.02
754.81
755.24
755.11
755.22
754.89
754.92
755.38
755.46
755.16
755.17
755.66
755.71
755.67
755.94
755.96
755.69
755.93
755.72
756.15
756.02
755.89
756
756.14
756.26
756.16
756.01
756.38
756.06
756.09
756.32
756.11
756.3
756.13
755.79
756.32
756.36
756.07
756.57
756.38
756.55
756.64
756.57
756.87
757.1
756.89
757.08
757.16
757.33
757.18
757.07
757.41
757.36
757.15
757.09
757.39
757.63
757.41
757.36
757.4
757.61
757.43
757.58
757.45
757.81
757.75
757.79
757.77
758.02
758.06
757.77
758.27
757.83
757.97
758.09
758.48
758.39
758.46
758.4
758.7
758.69
758.44
758.66
758.71
758.68
758.46
758.4
758.69
758.94
758.72
758.67
758.47
758.64
758.49
758.62
758.76
758.39
758.71
758.93
758.98
759.18
759.01
759.15
759.52
759.2
759.23
759.21
759.47
759.49
759.46
759.5
759.46
759.74
759.5
759.47
759.49
759.72
759.52
759.69
760.04
759.73
759.75
759.74
759.99
759.77
759.47
759.74
759.5
759.46
759.25
759.19
759.49
759.47
759.24
759.2
759.48
759.72
759.03
759.13
759.29
759.39
759.32
759.37
759.34
759.35
759.35
759.34
759.61
759.36
759.59
759.38
759.57
759.4
759.55
759.67
759.81
760.17
759.62
759.6
759.63
759.59
759.64
759.34
759.61
759.86
759.65
759.33
759.86
759.4
759.55
759.66
759.56
759.65
759.58
759.4
759.79
759.46
759.49
759.47
759.48
759.24
759.43
759.78
759.46
759.99
759.52
759.45
759.75
759.74
759.74
759.51
759.45
759.76
759.48
759.73
759.75
759.99
760.02
760
760.01
760.01
760
760.26
760.03
760.23
760.06
760.21
760.08
760.19
760.34
759.96
760.29
760.5
760.32
760.47
760.59
760.24
760.54
760.78
760.81
760.79
760.8
760.79
761.04
761.08
760.8
761.05
761.07
761.05
761.07
761.06
760.82
761.02
760.85
761
760.87
760.73
760.62
760.7
760.88
760.47
760.59
760.48
760.82
760.77
760.57
760.5
760.81
760.79
760.56
760.51
760.55
760.76
760.83
760.77
760.58
760.74
760.6
760.71
761.12
761.01
760.86
760.98
761.13
761
761.12
761.01
761.11
761.27
761.13
761.24
761.15
761.22
761.17
761.45
761.47
761.2
761.44
761.47
761.45
761.46
761.46
761.45
761.47
761.44
761.48
761.19
761.69
761.74
761.7
761.49
761.68
761.51
761.65
761.54
761.63
761.56
761.61
761.57
761.6
762.08
761.9
761.81
761.88
762.08
762.15
762.09
762.13
762.36
762.16
762.33
762.42
762.35
762.41
762.37
762.39
762.13
762.35
762.42
762.34
762.43
762.34
762.43
762.58
762.71
762.59
762.96
762.62
762.92
762.9
762.92
762.9
762.93
763.15
763.21
763.15
762.96
762.87
763.2
763.4
763.24
763.12
763.23
763.38
763.75
763.18
763.18
763.18
763.42
763.22
763.14
763.46
763.68
763.25
763.36
763.52
763.37
763.27
762.85
763.22
762.89
763.18
762.93
762.9
762.92
763.15
763.2
762.91
762.92
763.16
763.2
763.16
763.19
763.17
762.94
763.14
763.22
763.15
762.96
763.37
763.52
763.38
763.26
763.36
763.52
763.37
763.51
763.39
763.49
763.9
763.8
763.63
763.78
763.65
763.52
763.88
763.57
763.58
763.83
763.6
763.56
763.59
763.82
763.37
763.51
763.64
763.77
763.41
763.72
763.46
763.43
763.47
763.67
764
763.45
763.69
763.72
763.45
763.43
763.71
763.71
763.72
763.45
763.69
763.73
763.94
764
763.71
763.96
764
763.71
764.21
764.02
764.18
764.05
764.16
764.32
764.42
764.09
763.87
764.32
764.18
764.05
764.15
764.07
764.14
764.09
764.37
764.14
764.32
764.43
764.07
764.64
764.63
764.65
764.38
764.62
764.65
764.63
764.65
764.89
764.67
764.62
764.41
764.59
764.69
764.6
764.92
764.65
764.88
764.94
764.63
765.15
765.2
764.91
765.15
765.2
765.4
764.98
764.84
765.22
765.13
765.22
765.13
765.46
765.18
765.17
764.93
765.39
765.25
764.86
764.71
764.83
765.23
764.88
764.94
765.13
764.72
764.57
764.71
765.07
765.27
764.59
764.69
764.85
764.97
764.86
764.7
765.08
765.01
764.81
765
765.08
765.02
764.81
765.25
765.36
765.27
765.09
765.25
765.35
765.52
765.12
765.22
765.63
765.28
765.08
765.26
765.6
765.56
765.09
765.25
765.11
765.23
765.37
765.25
765.6
765.55
765.34
765.28
765.08
765.51
765.39
765.24
765.37
765.5
765.39
765.48
765.66
765.75
765.68
765.48
765.91
765.79
765.64
765.77
765.91
765.78
765.89
765.8
766.13
766.1
765.87
766.07
766.15
765.83
765.85
766.09
766.38
766.38
766.12
766.1
766.37
766.39
766.12
766.36
766.15
766.33
766.17
766.3
766.2
766.28
766.22
766.26
766.73
766.56
766.72
766.58
766.7
766.59
766.69
766.61
766.93
766.9
766.42
766.59
766.7
766.85
766.72
766.83
766.99
767.09
766.76
767.04
767.06
767.03
767.07
766.77
767.54
767.12
767.24
767.39
767.01
767.33
767.31
767.32
767.57
767.35
767.29
767.34
767.55
767.11
766.99
767.1
767.25
766.87
766.95
766.89
766.93
767.4
766.74
767.06
767.28
767.09
767.01
767.08
767.52
767.64
767.03
767.31
767.58
767.34
767.3
767.33
767.55
767.36
767.52
767.39
767.75
767.7
767.48
767.43
767.46
767.69
767.49
767.67
767.5
767.66
767.52
767.39
767.75
767.7
767.48
767.42
767.47
767.94
767.53
767.63
767.54
767.87
767.59
767.57
768.1
767.39
767.75
767.95
768.02
767.96
768.01
768.23
768.03
767.95
767.76
767.93
768.04
768.2
767.81
767.89
768.32
768.2
768.05
768.18
768.07
768.16
768.09
768.15
768.35
768.42
768.62
768.44
768.6
768.21
768.54
768.76
768.82
768.53
768.52
768.78
768.8
768.79
768.54
768.76
768.82
769.03
768.85
768.75
769.08
769.05
768.82
769.27
768.89
768.71
768.62
768.69
769.14
768.75
768.84
768.76
768.57
768.23
768.52
768.78
768.56
768.5
768.3
768.22
768.54
768.52
768.03
768.2
768.56
768.25
768.26
768.5
768.54
768.01
768.21
768.55
768.25
768.26
768.25
768.52
768.53
768.27
768.24
768.77
768.31
768.45
768.59
768.47
768.83
768.26
768.5
768.8
768.54
768.77
768.57
768.74
768.6
768.46
768.58
768.47
768.82
768.77
768.57
768.74
768.85
768.75
768.59
768.72
768.86
768.74
768.6
768.71
768.87
768.98
768.89
768.71
769.12
769.26
768.89
768.96
769.16
769.23
769.18
769.21
769.44
769.24
769.17
769.47
769.47
769.21
769.44
769.49
769.7
769.52
769.68
769.54
769.66
770.06
769.97
770.05
770.23
770.07
769.95
769.81
770.18
770.37
770.2
770.1
770.18
770.37
770.2
770.6
770.5
770.59
770.52
770.83
771.07
770.61
770.75
770.88
771.02
770.91
771
771.18
771.01
771.16
771.28
771.43
771.8
771.49
771.5
771.76
772.03
771.81
771.48
771.77
771.76
771.78
771.5
771.5
771.74
771.8
771.49
771.51
771.74
771.55
771.45
771.3
771.16
771.54
771.2
771.5
771.24
771.47
771.27
771.44
771.55
771.2
771.51
771.49
771.51
771.49
771.5
771.49
771.5
771.75
771.54
771.46
771.53
771.72
771.56
771.44
771.55
771.7
771.58
771.42
771.57
771.43
771.56
771.69
771.59
771.42
771.32
771.39
771.6
771.16
771.54
771.46
771.54
771.72
771.56
771.69
771.84
771.45
771.54
771.71
771.82
771.73
771.56
771.7
771.83
771.71
771.82
771.72
771.81
771.99
771.84
771.96
771.86
771.94
772.13
772.22
772.4
772.49
772.67
772.51
772.65
772.78
772.67
772.76
772.94
773.04
773.21
773.31
773.48
773.34
773.46
773.61
773.73
773.63
773.71
773.9
773.99
773.92
773.97
774.19
774.25
773.95
774.2
774.5
774.48
774.51
774.22
774.74
774.79
774.49
774.49
774.25
774.7
774.83
774.45
774.8
774.74
775.05
774.77
774.76
775.02
774.81
774.73
774.81
774.73
775.06
774.77
775.02
775.06
775.03
775.05
775.03
775.05
775.03
774.54
774.71
774.57
774.43
774.3
773.89
774
773.9
773.74
773.62
773.73
773.37
773.43
773.38
773.42
773.13
773.13
773.13
773.13
773.13
772.87
772.85
773.12
772.88
772.83
772.88
772.58
772.59
772.08
772.26
771.86
771.69
771.84
771.45
771.29
771.17
770.78
770.6
770.51
770.07
770.21
769.58
769.62
769.08
768.54
768.26
768
767.48
767.18
767.19
766.93
766.65
766.39
766.37
766.38
765.88
765.56
765.59
765.81
765.62
765.53
765.87
765.57
765.58
765.32
765.55
765.35
765.02
764.57
764.46
763.81
763.37
763.02
762.32
761.45
760.47
760.35
759.22
758.97
757.73
757.57
757.48
756.57
756.15
756.25
755.93
755.71
755.19
754.89
754.21
752.6
752.08
751.08
750.52
749.79
749.47
748.79
748.2
747.75
747.67
747.26
747.14
746.53
746.35
746.03
745.6
745.03
744.57
744.5
744.09
743.74
743.34
743.21
742.62
741.96
741.83
741.24
740.58
740.68
739.9
739.4
738.91
738.4
738.16
737.67
736.71
735.91
735.69
734.96
734.45
734.2
733.28
732.69
731.84
730.74
730.34
729.1
729.04
728.42
728.05
727.7
726.87
726.47
725.69
725.25
724.73
724.29
724
723.58
723.72
724.06
724.42
724.34
724.62
724.61
724.83
724.66
724.34
724.41
724.55
724.45
723.63
723.02
722.19
722.26
721.31
721.26
720.85
720.54
720.14
720.05
719.91
720.03
719.71
719.77
719.28
719.25
719.07
718.56
718.79
718.36
717.86
717.41
717.58
717.22
716.88
717.17
716.92
716.47
716.43
716.03
715.94
715.8
715.71
715.35
715.22
715.33
715.02
714.64
714.75
714.65
714.3
714.17
714.07
714.37
714.12
714.11
714.34
714.14
713.89
713.88
714.11
713.91
713.87
713.68
713.63
713.89
713.89
713.45
713.62
713.68
713.41
713.21
713.6
713.26
713.12
713.03
713.32
713.29
713.09
713.06
713.3
713.32
713.07
713.08
713.5
713.58
713.28
713.55
713.52
713.77
713.55
713.96
714.04
713.97
713.81
713.95
714.26
714.43
714.29
714.62
714.55
714.61
714.57
714.59
714.8
714.83
714.81
715.03
715.28
715.28
715.29
715.05
715.48
715.32
715.25
715.31
715.48
715.33
715.46
715.56
715.69
715.58
715.67
715.81
715.91
716.05
715.93
716.03
716.16
716.27
716.17
716.25
716.62
716.74
716.64
716.73
716.87
717.4
717.6
717.86
718.51
718.6
718.75
719.28
719.48
719.74
719.96
720.21
720.44
720.68
720.92
721.14
721.18
721.58
721.9
721.84
722.35
722.35
722.79
723.07
723.72
724.5
724.72
725.19
726.57
727.4
728.03
728.39
728.3
728.61
728.56
728.6
729.02
729.34
730.41
730.63
730.66
730.87
730.68
730.85
730.24
730.77
730.54
730.28
730.28
729.6
729.96
730.11
730.43
730.39
729.96
729.88
729.94
729.9
729.93
730.14
729.95
730.35
729.77
729.81
730.01
730.06
730.24
730.09
730.45
730.36
730.21
730.57
730.94
730.85
730.69
730.61
730.91
730.65
730.64
730.89
731.11
730.93
730.4
730.41
730.17
730.61
730.68
731.07
730.73
731.25
731.49
731.95
732.71
732.27
732.88
733.27
733.16
733.02
733.15
733.26
733.62
733.54
733.61
733.78
733.63
734.22
734.17
734.2
734.42
734.22
734.4
734.47
734.87
734.29
734.33
734.3
734.55
734.57
734.32
734.31
734.54
734.12
734.01
734.35
734.05
734.09
733.82
734.06
734.08
734.29
734.34
734.52
734.59
734.76
735.08
735.49
735.83
735.99
736.31
736.72
737.06
737.23
737.55
738.66
739.1
739.17
738.88
738.43
738.37
737.72
737.36
737.2
737.34
737.68
737.39
737.17
737.37
737.19
736.89
736.45
736.61
736.47
736.36
736.45
736.37
735.98
736.09
736.23
736.34
735.78
736.03
736.28
736.05
736.03
736.04
736.04
735.8
735.78
735.11
735.01
735.09
735.02
734.62
734.05
734.31
734.55
734.34
734.29
734.1
733.81
733.37
733.3
733.13
732.37
732.11
731.43
730.64
730.42
729.48
728.94
728.72
728.24
727.98
727.76
727.49
727.06
726.3
726.06
725.59
725.11
724.63
724.38
724.15
723.46
722.72
722.47
722.02
721.53
720.62
720.08
719.45
718.89
718.06
717.02
716.4
715.4
714.31
713.52
712.69
711.24
710.13
708.95
708.05
707.13
705.8
705.25
704.89
703.72
702.62
701.47
700.79
699.92
698.39
697.64
696.84
696.08
695.51
694.77
694.39
693.69
693.07
692.79
692.42
692.12
691.37
691
690.31
689.68
689.22
689
688.8
688.16
687.72
687.28
687.07
686.04
685.73
685.2
685.46
685.04
684
683.51
683.14
682.67
682.09
682
681.48
680.55
680.17
680.3
680.19
679.7
679.73
679.9
679.75
679.49
678.93
678.83
678.72
678.42
678.09
677.6
677.24
676.77
676.4
675.95
675.55
675.51
675.16
674.69
674.51
674.09
673.87
673.49
673.23
673.08
672.43
672.23
672.01
671.63
671
670.97
670.99
670.98
670.99
670.98
670.98
670.99
670.98
670.99
670.98
667.93
667.47
667.28
666.17
666.53
665.57
665.8
664.97
665.07
664.37
664.36
663.76
663.65
663.14
662.95
663.13
662.34
662.42
662.35
661.81
661.65
661.19
661.57
661.26
660.28
660.54
660.3
659.91
659.62
659.28
658.95
658.65
658.28
658.62
658.31
657.99
657.04
657.87
657.15
657.16
657.16
656.55
656.48
656.54
656.49
656.53
655.9
656.44
655.99
655.75
655.98
655.76
655.97
655.17
655.27
655.17
655.27
655.18
655.27
655.18
654.66
655.1
654.74
655.03
655.41
654.45
655.29
654.56
654.6
654.56
654.59
654.57
654.59
654.57
654.59
653.98
654.5
654.06
653.82
654.04
653.24
653.94
653.93
653.94
653.33
653.26
653.33
653.27
653.32
653.27
652.72
652.6
653.31
652.69
653.22
652.78
652.54
652.76
651.96
652.66
652.65
652.66
652.65
652.66
652.65
652.07
652.57
652.15
652.49
652.81
652.52
652.79
652.54
652.77
653.15
652.83
652.49
652.8
653.12
653.46
653.15
653.43
653.77
654.08
653.81
654.05
653.83
654.62
654.54
654.01
653.87
654.59
654.58
655.17
655.27
655.17
655.28
655.17
655.28
655.16
655.28
655.16
655.28
655.16
655.28
655.16
655.28
655.17
655.28
655.17
655.27
655.77
655.36
655.09
655.34
655.11
655.93
655.21
655.84
655.3
655.15
655.89
655.25
655.2
655.25
655.8
655.93
655.21
655.23
655.81
655.32
655.14
655.9
655.84
655.29
655.16
655.28
655.17
655.27
654.58
654.57
654.59
653.97
653.91
653.96
654.52
654.04
653.84
654.02
654.46
654.69
653.89
654.58
653.99
653.89
653.99
654.48
654.67
653.89
654.58
653.98
653.9
653.96
653.91
654.55
654.01
653.87
654.01
653.87
654
653.28
653.91
653.96
653.92
653.35
653.84
654.02
653.86
653.41
653.79
654.07
653.81
653.45
653.75
654.11
653.78
653.48
653.73
654.13
653.76
654.09
653.8
654.06
653.83
654.03
653.85
654.01
654.47
654.07
653.82
654.64
655.13
654.7
654.47
654.67
655.1
655.33
655.13
655.3
655.75
655.97
655.78
655.94
656.41
656
656.35
657.26
657.08
656.63
657.02
657.29
657.05
657.25
657.08
657.23
657.11
657.2
657.13
657.78
657.84
657.17
657.76
657.85
657.78
657.23
657.71
658.5
658.43
658.48
659.05
659.16
659.07
659.14
659.08
659.73
660.4
659.81
660.33
659.88
660.26
660.55
660.9
661.22
660.93
661.19
660.96
661.16
661.6
661.23
661.54
661.28
661.49
661.94
662.15
662.6
662.8
663.26
662.85
663.83
663.59
663.8
664.24
664.47
664.89
664.53
664.84
665.81
665.58
665.16
665.53
666.45
666.27
665.8
666.21
666.48
666.87
667.15
666.91
667.74
667.65
667.72
667.68
667.7
668.32
667.77
668.25
667.83
668.19
668.51
668.23
669.1
668.35
668.36
668.37
668.34
669
668.42
668.31
668.4
668.33
667.76
668.26
668.45
668.28
668.43
668.31
668.4
668.95
668.48
668.26
669.07
669
669.06
669.01
669.04
669.65
669.74
670.3
670.45
670.94
670.52
670.88
671.21
670.91
671.18
670.94
671.15
671.59
671.21
671.53
671.9
670.94
671.15
670.97
671.12
670.99
670.47
670.29
670.45
670.31
670.43
670.33
670.41
670.98
671.11
671
671.09
671.02
671.08
671.03
671.69
671.76
671.06
671.68
671.77
671.69
671.75
671.71
671.74
672.35
671.82
672.27
671.89
672.21
672.59
672.24
672.55
672.9
672.61
672.85
673.3
672.89
673.26
673.56
673.95
674.24
674
674.19
674.68
674.24
674.63
674.28
674.59
674.32
673.92
674.27
674.6
674.31
673.93
674.25
674.61
674.3
673.94
674.25
673.98
674.2
674.66
674.89
675.33
674.95
674.65
674.91
675.32
674.96
674.64
674.91
675.31
674.33
673.9
674.28
673.95
674.24
673.36
672.84
673.29
672.9
673.24
672.95
672.56
672.27
671.88
672.23
672.55
672.28
671.88
671.6
671.2
670.92
670.53
670.25
669.85
670.2
669.9
669.53
669.85
669.58
669.8
669.62
669.14
668.94
668.47
668.27
668.43
668.3
667.78
667.62
667.12
667.56
667.18
666.89
666.52
666.84
666.56
666.79
666.6
666.76
666.64
666.1
666.58
666.16
666.53
666.21
666.48
666.25
666.44
666.28
666.41
666.31
666.38
666.34
666.36
666.36
665.72
666.29
666.41
666.31
666.39
666.95
667.08
666.97
667.06
667
667.04
667.63
667.12
667.56
667.8
668.21
668.49
668.24
669.09
669.61
669.79
670.26
670.48
671.54
671.27
672.12
672.67
672.8
673.98
675.48
676.76
676.91
678.72
679.71
680.81
681.15
682.81
683.98
684.93
685.42
686.96
687.61
688.36
689.72
690.53
691.17
691.94
691.96
691.93
693.31
694.12
694.77
694.88
695.47
696.31
696.94
697.74
698.42
699.19
699.22
699.87
700.69
700.65
700.7
700.64
700.7
700.64
700.71
700.64
700.71
700.63
700.71
699.9
700.28
700.37
701.13
701.31
702.19
702.91
702.69
703.73
704.3
704.86
705.01
704.88
705.2
705.35
705.64
706.24
706.14
706.65
706.64
706.65
707.07
707.97
708.68
709.13
709.82
710.29
710.53
711.18
712.13
712.59
713.49
714.66
715.39
715.84
715.89
716.71
717.32
716.79
717.03
716.6
717.19
717.13
716.3
715.5
715.09
715.02
715.07
714.82
714.59
714.8
714.39
714.54
714.4
714.52
713.98
713.8
713.96
713.82
713.5
712.49
711.85
711.33
710.48
709.51
708.84
708.15
706.82
705.22
703.43
702.46
700.78
698.89
697.62
696.24
694.75
693.18
691.87
691.17
689.75
688.96
687.63
686.56
685.69
684.24
683.11
681.9
680.78
679.77
678.88
677.89
676.8
675.79
674.92
673.92
672.86
671.85
670.81
670.74
670.82
670.74
670.82
670.74
670.82
670.74
670.82
670.74
670.82
665.39
664.08
664.01
663.42
663.35
662.76
662.69
662.11
662.63
662.16
661.97
660.89
661.84
661.63
661.2
660.96
661.78
661.08
661.06
661.09
661.04
661.71
661.73
661.73
661.72
661.74
661.71
661.75
661.7
661.76
662.3
662.46
662.3
662.46
662.92
662.55
662.84
663.23
662.86
663.83
662.97
663.72
663.68
663.72
663.68
663.72
664.3
664.42
663.7
664.32
664.4
664.33
664.4
664.95
665.1
665.58
665.8
666.21
667.11
667.56
667.81
668.83
669.22
668.85
669.19
669.51
669.88
669.54
669.86
669.56
669.83
669.59
669.81
669.61
670.41
670.35
669.77
670.27
670.47
670.29
670.45
670.31
670.43
670.33
670.42
670.34
670.41
670.98
671.11
671
671.1
671.64
671.17
670.94
671.78
671.69
671.76
671.7
672.38
672.44
672.37
672.44
672.37
672.44
672.36
672.45
672.99
673.17
673
673.16
673
673.16
673.01
673.15
673.65
673.87
674.3
674.58
674.95
675.29
675.61
676.64
676.37
675.97
676.3
677.32
676.43
677.2
676.53
677.1
676.63
677.02
677.35
677.03
677.33
677.69
678.05
677.71
677.38
677.64
677.45
676.94
678.05
677.07
677.29
676.45
677.18
677.19
676.54
676.46
676.53
676.47
675.88
675.75
675.87
676.4
675.95
675.05
675.2
675.07
675.18
675.08
674.53
673.73
674.42
673.83
673.69
674.47
673.79
673.74
673.78
673.75
673.14
673.04
673.12
673.05
673.11
673.06
673.1
673.07
673.09
672.45
672.36
673.08
673.09
672.45
672.36
672.45
672.99
672.54
672.28
672.53
672.29
672.51
672.3
672.5
671.69
672.4
672.41
672.39
672.41
672.4
672.41
673.03
672.5
672.31
673.12
673.05
673.12
673.05
673.11
673.69
673.2
672.98
673.18
672.99
673.17
673.01
673.15
673.02
673.14
673.03
673.13
673.04
673.12
672.42
673.02
673.14
673.03
672.51
672.31
672.49
672.95
672.57
672.25
673.18
672.36
672.44
672.37
673.07
673.1
672.44
672.38
673.06
673.11
672.43
672.38
673.06
672.48
672.33
672.47
672.34
673.1
672.44
672.37
672.43
673.01
672.52
672.3
672.5
672.95
672.57
672.25
672.55
672.91
672.61
672.21
672.58
672.88
672.64
672.19
672.6
672.86
672.65
672.18
672.6
672.86
672.65
672.18
673.24
672.32
672.48
672.98
672.54
672.29
672.5
672.32
672.47
672.98
672.53
672.29
673.13
673.05
672.47
672.35
673.08
673.1
672.43
673.02
672.5
672.96
673.19
672.99
673.16
673.02
673.13
673.05
673.11
673.07
673.09
673.09
673.71
673.19
672.98
673.19
672.98
673.82
673.07
673.1
673.06
673.74
673.15
673.66
673.86
674.32
673.93
673.61
673.9
674.28
673.96
673.58
673.93
674.25
673.99
673.56
674.58
674.32
673.92
674.26
674.61
674.3
673.94
673.6
673.91
674.27
673.97
673.58
674.56
674.35
673.9
674.28
674.59
674.32
673.92
674.26
673.98
674.21
674.66
674.26
674.61
674.93
674.66
674.89
675.34
674.94
675.3
674.35
675.16
675.11
675.14
675.13
675.12
675.78
675.19
675.08
675.8
675.19
675.06
675.84
675.78
675.85
675.14
675.13
674.49
675.05
675.2
675.07
675.18
675.73
675.25
675.02
675.22
675.05
675.84
675.8
675.82
675.81
675.17
675.73
675.89
675.75
675.87
675.77
675.85
676.42
675.29
675.62
675.99
675.65
675.96
675.68
675.93
675.71
675.9
676.37
676.61
675.76
675.85
676.42
676.57
676.44
675.91
675.73
676.53
676.48
675.87
676.4
676.59
676.42
676.56
676.44
676.55
676.46
675.89
676.38
675.96
676.32
676.66
676.35
676.63
676.38
676.6
676.41
676.58
675.79
676.46
676.54
676.46
676.54
675.81
676.45
676.54
676.47
675.88
675.75
676.5
675.86
675.76
675.86
675.76
676.5
675.86
675.77
675.85
676.42
675.93
676.35
676
676.28
676.06
676.23
676.11
675.54
676.06
675.59
676.02
675.63
675.34
675.58
676.03
675.62
675.35
674.93
675.3
674.98
675.26
675.01
674.59
673.68
673.83
673.08
673.71
673.19
672.34
672.47
672.34
672.47
671.7
671.76
671.69
671.77
671.05
671.05
671.04
671.06
670.41
670.98
670.48
670.28
670.46
670.31
670.44
670.32
669.79
670.25
669.86
669.56
669.83
669.59
669.8
668.99
669.06
669.01
669.05
669.02
668.41
668.32
668.39
668.33
667.76
668.26
667.83
667.56
667.18
667.5
667.86
666.91
667.12
666.94
667.1
666.96
666.46
666.89
667.14
666.92
666.5
666.23
666.47
666.26
666.44
666.28
665.8
665.59
665.77
665.62
665.75
665.64
665.11
664.95
665.09
665.59
664.54
664.82
665.21
664.86
664.56
664.81
665.22
664.85
664.57
664.18
664.53
664.84
664.58
664.79
664.62
664.75
664.66
664.72
664.69
664.07
665.24
664.84
665.19
664.27
665.06
665.63
665.12
665.57
665.17
665.52
665.84
665.56
665.18
664.9
665.14
665.55
665.19
664.89
665.14
665.55
665.19
665.5
665.85
665.55
665.19
665.5
665.85
665.55
665.81
665.59
666.39
666.34
666.36
666.36
666.34
667
666.41
666.31
666.38
666.96
666.45
666.28
667.04
667.01
666.4
666.94
667.09
667.59
667.16
666.91
667.12
667.56
667.18
666.88
667.77
667.62
667.74
668.27
668.44
668.3
668.41
668.94
668.48
668.88
668.54
668.82
669.22
669.49
669.27
669.44
669.94
669.49
669.89
669.53
669.85
669.57
669.82
669.6
669.79
670.26
669.85
669.57
670.44
670.32
669.79
669.63
669.76
669.65
670.37
670.39
670.36
670.4
669.72
670.32
669.8
670.25
669.86
669.56
669.83
670.22
669.89
669.53
669.85
670.19
669.91
670.14
669.96
670.1
670.63
670.15
670.58
670.2
670.54
670.24
670.5
670.27
670.46
670.3
670.43
669.7
670.32
670.44
670.94
670.53
670.22
671.16
670.95
671.15
670.95
671.15
670.96
671.14
670.96
671.14
670.97
671.13
670.34
671.04
671.06
671.04
671.06
671.05
671.05
671.68
671.14
670.97
671.13
671.61
671.84
671.63
671.82
671.64
671.8
671.66
671.79
671.67
671.78
671.68
671.77
672.32
671.85
671.61
671.83
672.26
672.53
672.29
672.51
672.31
672.49
672.32
672.48
672.34
672.46
672.36
672.45
673
672.53
672.93
673.23
672.95
673.2
672.98
673.18
673
673.16
673.65
673.86
673.04
673.12
673.69
673.83
673.71
673.18
673.63
673.88
674.3
673.94
673.6
673.91
673.63
673.88
673.66
673.85
673.69
673.82
673.71
673.8
673.73
673.79
673.75
674.4
673.86
673.67
674.49
673.77
674.4
674.48
674.42
674.47
674.43
674.45
674.44
674.44
675.09
674.53
675.01
674.6
674.94
675.3
674.98
675.27
675.01
675.24
675.67
675.94
675.06
675.18
675.08
675.16
675.1
675.15
675.12
675.13
675.13
675.12
675.14
675.11
675.15
675.11
675.79
675.83
675.8
675.19
675.72
675.9
675.74
675.88
675.75
676.5
675.86
675.77
675.86
676.41
676.59
675.77
676.49
675.87
676.4
675.95
675.69
676.57
675.8
676.46
676.53
676.46
676.53
676.47
676.53
676.47
677.17
677.2
676.53
677.11
677.26
677.12
676.61
677.03
677.97
677.15
677.22
677.16
677.21
677.8
677.3
677.72
677.37
677.66
677.43
677.6
678.12
677.65
678.72
677.78
677.96
677.8
677.93
677.83
677.91
678.49
677.99
678.42
678.05
678.36
678.75
677.76
677.97
678.43
678.68
678.47
678.65
678.5
677.98
678.43
678.04
677.73
678
677.77
677.96
678.44
678.02
678.39
678.08
677.7
678.03
677.74
677.99
677.78
677.95
677.81
677.92
677.84
677.9
677.86
677.87
677.89
677.21
677.81
677.93
677.84
677.9
678.5
677.97
677.79
677.94
677.82
677.92
678.48
677.99
677.77
677.96
677.8
677.94
678.47
678.65
678.49
677.98
678.42
678.69
678.46
678.66
678.48
678.63
678.51
678.61
678.53
678.59
678.54
678.58
678.56
678.56
678.57
678.56
678.58
678.55
678.58
678.54
678.59
678.54
678.59
678.54
678.59
678.54
678.59
678.54
678.59
678.54
678.59
678.54
679.23
678.64
679.14
678.72
678.42
679.34
679.18
678.69
679.1
678.76
679.03
679.47
679.7
678.89
678.91
679.57
678.96
680.17
679.75
679.48
679.69
680.18
679.74
680.14
679.78
680.1
679.82
679.42
679.76
680.12
679.8
680.08
679.84
680.04
679.87
679.37
679.8
680.08
679.84
680.04
679.87
680.01
679.9
679.98
679.92
679.32
679.85
680.03
679.88
680
679.91
679.98
679.93
679.96
679.95
679.29
679.23
679.92
679.34
679.17
679.34
679.17
679.99
679.26
679.26
679.25
679.91
679.33
679.19
679.31
679.21
678.65
679.13
679.37
679.16
678.7
679.09
678.76
679.03
678.82
678.98
679.51
679.03
678.82
678.33
679.41
679.12
678.73
678.41
679.34
678.54
678.58
678.56
679.2
679.31
678.55
678.58
678.54
678.59
678.54
678.6
678.53
678.6
677.88
678.51
678.61
678.53
678.59
677.9
677.85
678.54
677.94
678.46
678.66
678.48
678
678.4
678.71
678.43
678.04
678.36
678.1
678.31
678.16
678.26
678.84
678.31
678.15
678.26
678.84
677.68
678.05
678.36
678.75
678.4
678.06
678.35
678.76
678.4
678.07
677.7
678.02
678.39
678.08
678.34
678.12
678.3
678.8
678.36
678.75
678.41
678.7
678.45
678.66
679.13
678.71
678.44
678.67
679.12
678.72
679.07
679.41
679.12
679.37
679.16
679.33
679.2
679.3
679.23
679.27
679.9
679.34
679.19
679.95
679.32
679.19
679.33
679.18
679.98
679.27
679.9
679.34
679.83
679.41
679.12
680.02
679.89
679.35
679.82
680.06
679.85
680.03
679.88
680.01
679.9
679.99
679.92
679.97
679.94
679.95
679.95
679.94
679.96
679.94
679.96
679.93
680.62
680.02
679.89
679.36
680.45
680.17
679.75
680.78
680.52
680.75
680.55
680.73
679.92
679.97
679.93
680.61
680.68
679.96
679.94
679.95
680.59
680.04
680.51
680.76
680.53
680.1
680.46
680.81
680.49
680.14
680.42
680.2
679.72
680.16
680.4
680.86
680.45
680.82
680.48
680.78
680.52
680.11
680.45
680.81
680.49
680.13
680.43
680.83
680.48
680.79
680.52
680.75
680.55
680.72
681.23
681.43
680.61
680.66
681.28
681.38
681.3
681.36
681.32
681.34
680.69
681.23
681.44
681.23
681.44
681.24
681.44
681.89
681.53
681.16
681.51
681.17
682.14
681.28
681.39
681.94
682.13
681.3
682.03
681.39
681.93
681.48
681.86
682.2
681.88
681.53
681.81
681.59
681.75
681.65
681.06
682.25
681.19
681.47
681.87
681.53
681.81
681.59
681.11
682.19
681.89
681.51
681.18
682.12
681.96
681.45
681.89
682.16
681.92
682.13
681.95
682.1
681.33
681.99
682.74
682.72
682.1
681.97
682.75
682.06
682.67
682.79
682.69
682.77
682.7
682.76
682.72
682.74
682.08
681.99
682.73
682.73
682.74
682.07
682.65
682.8
682.67
682.14
682.59
682.86
682.62
682.19
682.55
682.9
682.58
682.22
682.52
682.93
682.56
682.24
682.5
682.94
682.54
682.9
682.59
682.86
682.62
682.83
682.65
682.8
682.68
682.78
682.7
682.76
683.37
682.84
682.65
682.81
682.67
682.78
682.69
682.76
683.36
682.84
682.64
682.81
682.67
682.79
682.69
682.77
682.71
682.75
682.72
682.74
682.73
682.73
682.75
683.37
683.5
682.72
682.75
682.71
683.41
683.45
683.42
683.44
682.78
683.34
683.52
683.35
682.86
682.61
682.85
683.28
683.58
682.65
683.47
683.4
683.46
682.76
683.36
683.5
683.37
682.84
682.63
682.83
683.29
682.91
682.56
682.89
682.59
682.87
682.61
682.85
682.63
682.83
682.64
682.82
682.66
682.8
682.67
682.79
682.68
682.78
682.69
682.77
682.7
682.76
682.71
682.75
682.72
682.75
682.72
682.74
682.73
682.74
682.73
682.73
682.74
682.73
682.74
683.38
683.49
683.38
683.48
683.39
683.48
683.39
683.47
683.39
683.47
682.75
683.37
683.49
683.38
683.48
683.39
683.47
683.4
682.82
682.66
683.45
682.76
682.7
683.41
682.8
682.67
683.44
683.43
683.44
683.43
683.43
683.44
683.43
683.44
683.43
683.44
683.43
683.44
683.42
684.1
683.52
684.01
684.25
684.03
683.58
683.95
683.65
683.89
684.36
683.93
684.32
683.96
684.29
684
684.26
684.02
684.23
684.7
684.3
683.99
684.27
684.67
684.33
683.96
684.29
684
684.26
684.03
684.88
684.81
684.2
684.73
684.93
684.76
684.25
684.69
684.96
684.73
684.28
684.67
684.99
684.71
684.95
684.74
684.92
685.43
684.98
684.71
685.6
684.84
684.82
685.51
684.9
684.79
684.88
684.81
685.51
685.58
684.85
684.84
684.83
685.51
684.91
684.78
684.89
684.8
684.87
684.81
685.51
684.92
684.75
684.92
685.41
685.01
684.67
685
684.69
684.98
684.7
684.96
684.72
684.95
684.74
685.59
684.84
685.49
685.6
684.83
685.5
685.58
685.51
684.92
685.42
685.65
685.44
684.97
685.37
685.7
685.4
685.67
685.43
685.64
685.46
684.96
685.39
685.68
685.42
684.99
685.36
685.71
685.4
685.67
684.78
684.88
685.46
684.95
684.74
685.57
685.52
684.9
685.45
684.96
685.38
685.02
685.33
685.73
685.38
685.03
684.67
685.64
685.46
685.6
685.5
684.92
685.43
684.98
684.72
684.94
685.41
685
685.35
685.71
685.4
685.66
685.44
685.63
685.47
684.94
685.41
685
685.35
685.71
685.4
685.66
685.44
685.63
685.47
685.6
685.5
684.91
685.43
685.63
685.47
685.6
685.5
684.92
685.42
684.99
684.71
684.95
685.4
685.01
685.34
685.72
685.38
685.03
685.32
685.74
685.37
685.04
685.32
685.74
685.36
685.04
685.31
685.75
685.36
685.7
684.75
684.91
685.43
684.98
685.37
685.69
685.41
685.65
685.45
685.62
685.48
685.59
686.16
685.66
685.44
685.63
685.47
685.6
685.49
685.58
685.51
685.56
685.53
685.54
685.55
685.53
686.22
685.61
686.14
685.69
686.07
685.75
685.35
685.71
686.05
685.77
685.99
686.48
685.38
685.68
685.42
685.65
686.11
685.71
686.05
686.43
686.09
685.73
686.03
686.44
686.08
685.74
686.02
685.79
685.98
686.49
686.03
686.44
686.74
685.83
685.94
686.52
686
686.46
686.06
687.07
686.86
686.37
686.15
686.99
686.94
686.3
686.21
686.27
686.9
686.34
686.17
686.96
686.96
686.28
686.22
686.92
686.34
686.15
687
686.9
687.01
686.23
686.92
686.98
686.28
686.21
686.29
686.2
686.3
686.2
686.3
686.2
686.96
686.29
686.21
686.28
686.22
686.27
686.89
687.01
686.24
686.25
686.91
687
686.92
686.33
686.17
686.97
686.94
686.31
686.85
687.05
686.86
686.38
686.78
687.11
686.81
686.43
686.74
686.49
686.68
686.55
686.63
687.25
686.68
687.21
686.73
686.5
686.67
687.21
686.72
687.16
686.77
687.12
686.81
687.08
686.85
687.05
686.88
687.02
686.9
686.34
686.83
686.4
686.77
686.46
686.72
687.17
686.77
687.12
686.81
687.08
686.85
687.04
686.88
687.01
686.91
686.98
686.94
686.96
686.96
686.94
686.98
686.92
687.65
687
687.58
687.74
687.6
687.71
687.63
687.69
687.65
687.01
687.57
687.74
687.6
687.72
687.62
687.04
687.55
687.77
687.58
687.74
687.6
687.71
687.62
687.69
687.64
687.68
687.66
687.66
687.67
687
687.58
687.74
687.6
687.06
687.52
687.79
686.89
687.67
687.67
687
687.58
687.08
686.84
687.05
687.53
687.13
686.8
687.75
686.92
686.98
687.6
687.06
687.52
687.13
686.79
687.76
686.92
686.98
687.59
687.72
687.61
687.05
686.87
687.69
686.99
686.92
686.99
686.92
