372.58
372.72
372.6
372.51
372.58
372.72
372.6
372.7
372.61
372.49
372.6
372.51
372.78
372.74
372.77
372.94
372.99
372.95
372.78
372.93
373.19
373.16
372.99
373.14
373.21
373.15
373
373.13
373.02
373.11
373.23
373.13
373.22
373.33
373.24
373.31
373.25
373.3
373.46
373.32
373.64
373.36
373.21
373.34
373.23
373.32
373.25
373.31
373.26
373.29
373.27
373.28
373.48
373.5
373.49
373.49
373.69
373.51
373.67
373.53
373.65
373.74
373.66
373.73
373.87
373.94
373.88
373.74
374.06
373.98
373.85
373.96
374.06
374.17
373.88
373.74
373.86
373.95
373.67
373.52
373.46
373.51
373.47
373.51
373.48
373.11
373.43
373.35
373.61
373.59
373.4
373.38
373.58
373.61
373.38
373.59
373.6
373.59
373.4
373.57
373.8
373.81
373.6
373.59
373.6
373.79
373.62
373.77
373.64
373.75
373.65
373.74
373.86
373.75
373.85
373.76
373.84
373.77
373.63
373.76
373.65
373.74
373.67
373.53
373.85
373.77
373.64
373.55
373.82
373.98
373.65
373.74
374.06
373.78
373.82
373.79
373.81
373.99
373.84
373.97
374.05
373.98
374.04
373.99
374.03
374.19
374.05
373.98
374.24
374.21
374.04
373.99
374.23
374.42
374.06
374.17
374.27
374.38
374.29
374.36
374.3
374.35
374.32
374.33
374.52
374.35
374.51
374.37
374.69
374.22
374.42
374.64
374.64
374.65
374.44
374.62
374.66
374.83
374.68
374.61
374.87
374.84
374.67
374.82
374.88
374.83
374.88
374.84
374.87
375.04
374.89
375.02
375.11
375.03
374.9
375.01
375.11
374.83
375.07
375.26
375.1
375.04
375.09
375.24
375.31
375.06
375.27
375.09
375.43
375.54
375.24
375.31
375.44
375.54
375.44
375.53
375.45
375.72
375.28
375.67
375.73
375.47
375.5
375.67
375.72
375.68
375.52
375.65
375.74
375.66
375.74
375.86
375.96
375.67
375.92
375.91
375.92
375.91
375.72
375.88
375.94
375.89
375.93
375.89
375.93
376.09
375.95
376.07
376.17
376.08
376.16
376.09
376.35
376.32
376.15
376.1
376.15
376.3
376.17
376.08
376.36
376.32
376.16
376.29
376.18
376.47
376.42
376.26
376.41
376.27
376.39
376.48
376.61
376.5
376.59
376.71
376.81
376.92
376.63
376.68
377.04
376.92
376.82
376.9
377.04
377.12
376.85
376.88
377.06
376.9
377.04
376.92
377.22
376.96
376.98
377.17
377.2
377.18
377.19
377.39
377.41
377.4
377.4
377.6
377.62
377.41
377.59
377.65
377.58
377.65
377.58
377.85
377.81
377.85
377.61
377.82
378.03
377.86
377.8
377.86
377.8
378.05
377.83
378.03
378.06
378.03
378.05
378.03
378.05
378.04
378.05
378.24
378.27
378.04
378.24
378.27
378.24
378.27
378.25
378.27
378.25
378.27
378.45
378.49
378.45
378.49
378.46
378.49
378.46
378.69
378.49
378.66
378.52
378.63
378.74
378.64
378.74
378.84
378.76
379.02
378.81
378.78
379.02
378.79
379.2
379.04
378.99
379.02
379.21
379.04
379.19
379.05
379.18
379.07
379.37
379.31
379.16
379.29
379.38
379.3
379.37
379.51
379.39
379.49
379.6
379.3
379.36
379.51
379.58
379.32
379.54
379.56
379.54
379.57
379.33
379.54
379.56
379.55
379.55
379.75
379.57
379.73
379.6
379.71
379.81
379.72
379.8
379.53
379.76
379.77
379.76
379.78
379.96
380.01
379.75
379.98
379.98
379.99
379.98
379.99
379.98
379.99
379.97
379.99
379.97
379.99
379.97
380
380.17
380.03
379.94
380.22
380.18
380.22
379.98
380.19
380.21
380.19
380
380.16
380.23
380.37
380.26
380.15
380.45
380.18
380.21
380.19
380.21
380.19
380.21
380.19
380.21
380.19
380.21
380.19
380.2
379.79
379.54
379.76
379.57
379.93
380.43
380.6
380.66
380.4
380.63
380.64
380.83
380.67
380.6
380.66
380.61
380.45
380.58
380.68
380.59
380.88
380.63
380.84
380.66
380.81
380.89
380.82
380.88
380.82
380.68
380.79
380.9
381
380.93
380.78
380.92
380.99
381.14
381
381.13
381.01
381.12
380.82
381.08
380.86
381.25
381.12
381.02
381.12
381.02
381.31
381.06
381.28
381.29
381.08
381.26
381.31
381.26
381.31
381.26
381.31
381.27
381.31
381.47
381.54
381.48
381.53
381.48
381.73
381.51
381.5
381.51
381.5
381.71
381.33
381.45
381.35
381.43
381.57
381.24
381.33
381.45
381.35
381.43
381.57
381.24
381.53
381.48
381.52
381.49
381.52
381.7
381.75
381.7
381.74
381.71
381.94
381.95
381.73
381.92
381.96
381.93
381.75
381.9
381.77
381.68
381.76
381.49
381.32
381.67
381.57
381.45
381.76
381.69
381.55
381.47
381.54
381.68
381.56
381.66
381.78
381.68
381.76
381.69
381.96
381.93
381.54
381.68
381.76
381.89
381.38
381.21
381.36
381.02
381.11
381.24
381.13
381.42
381.58
381.85
382.23
382.1
382.21
382.12
382.2
382.33
382.21
382.11
382.4
382.36
382.19
382.14
382.38
382.38
382.17
382.56
382.43
382.54
382.44
382.32
382.43
382.54
382.24
382.29
382.46
382.52
382.47
382.3
382.45
382.32
382.43
382.54
382.24
382.7
382.52
382.46
382.72
382.49
382.49
382.48
382.7
382.51
382.68
382.53
382.46
382.72
382.7
382.72
382.91
382.74
382.68
382.73
382.89
382.96
382.7
382.72
382.91
382.74
382.88
382.97
382.89
382.96
382.9
382.75
382.88
382.77
382.86
382.79
382.84
382.8
382.63
382.78
382.64
382.77
382.66
382.55
382.84
382.8
382.63
382.78
382.64
382.77
382.86
382.78
382.85
382.8
382.84
383.01
383.06
383.43
383.31
383.42
383.53
383.43
383.52
383.45
383.51
383.46
383.29
383.44
383.52
383.45
383.51
383.46
383.5
383.47
383.28
383.24
383.27
383.45
383.3
383.23
383.49
383.47
383.28
383.24
383.27
383.45
383.3
383.22
383.49
383.47
383.28
383.44
383.51
383.45
383.3
383.22
383.29
383.23
383.08
383.21
383.31
383.22
383.09
383.19
383.32
383.21
383.1
383.19
383.32
383.2
383.11
383.39
383.36
383.17
383.14
383.16
383.35
383.38
383.36
383.17
383.34
383.39
383.36
383.17
383.34
383.4
383.35
383.18
383.33
383.41
383.34
383.39
383.55
383.41
383.33
383.4
383.34
383.39
383.56
383.41
383.54
383.43
383.31
383.42
383.74
383.47
383.49
383.48
383.48
383.69
383.5
383.47
383.69
383.51
383.65
383.75
383.65
383.95
383.48
383.9
383.74
383.67
383.72
383.68
383.92
383.72
383.68
383.72
383.68
383.72
383.47
383.49
383.47
383.7
383.5
383.67
383.52
383.65
383.54
383.22
383.09
382.99
383.08
383
383.07
383.21
382.89
382.96
383.11
382.97
383.1
383.19
383.32
383.2
383.1
383.19
383.33
383.2
383.31
383.21
383.1
383.19
383.32
383.21
383.1
383.39
383.35
383.38
383.57
383.19
383.52
383.44
383.51
383.66
383.32
383.41
383.75
383.45
383.5
383.46
383.7
383.91
383.52
383.65
383.54
383.64
383.55
383.62
383.77
383.64
383.55
383.62
383.77
383.64
383.55
383.62
383.77
383.64
383.75
383.66
383.53
383.85
383.78
383.63
383.97
383.88
383.75
383.87
383.76
383.85
383.78
383.84
383.99
383.86
383.97
383.67
383.93
383.71
383.27
383.46
383.5
383.47
383.49
383.48
383.48
383.48
383.47
383.49
383.67
383.73
383.46
383.7
383.9
383.74
383.66
383.74
383.66
383.94
383.49
383.88
383.75
383.65
383.74
383.66
383.94
383.91
383.73
383.68
383.72
383.89
383.74
383.66
383.94
383.9
383.73
383.88
383.96
383.89
383.75
383.86
383.77
383.85
383.79
383.83
384.01
384.05
383.81
383.8
384.03
384.03
384.04
384.02
384.05
383.81
384.03
384.03
384.03
384.03
384.04
383.81
384.22
383.86
383.97
384.09
384.19
384.1
383.97
383.88
384.16
383.93
384.12
384.17
384.11
384.17
383.9
384.15
384.13
384.15
384.13
384.16
384.12
384.37
384.15
384.34
384.38
384.15
384.14
384.36
384.37
384.36
384.16
384.34
384.39
384.55
384.2
384.3
384.43
384.31
384.41
384.32
384.61
384.57
384.39
384.34
384.59
384.58
384.59
384.38
384.55
384.62
384.35
384.59
384.79
384.62
384.55
384.82
384.79
385.03
384.62
384.76
384.85
384.98
384.87
384.96
385.1
384.97
384.88
384.74
384.87
384.75
384.86
384.97
385.08
384.98
385.07
384.99
385.07
385.21
385.09
385.19
385.31
385.2
385.09
385.18
385.32
385.19
385.31
385.21
385.29
385.22
385.28
385.23
385.48
385.26
385.45
385.5
385.45
385.71
385.48
385.68
385.5
385.45
385.7
385.49
385.67
385.73
385.46
385.7
385.7
385.7
385.7
385.49
385.66
385.94
385.49
385.67
385.72
385.68
385.72
385.68
385.71
385.89
385.74
385.87
385.97
385.67
385.93
385.91
385.93
385.92
385.92
385.71
385.89
386.16
385.92
386.13
386.16
386.13
386.16
386.13
386.15
386.14
385.94
386.11
386.18
385.91
386.14
386.15
386.35
386.18
386.11
386.38
386.35
386.38
386.15
386.35
386.39
386.35
386.38
386.56
386.41
386.54
386.43
386.52
386.66
386.53
386.65
386.54
386.85
386.79
386.64
386.56
386.63
386.56
386.83
386.6
386.79
386.84
386.59
386.81
386.82
387.02
386.85
386.79
386.84
386.79
386.84
387.01
386.86
386.98
386.88
386.97
387.11
386.98
387.1
386.99
387.3
387.24
387.08
387.01
387.28
387.05
387.03
387.26
387.27
387.27
387.06
387.24
387.29
387.46
387.31
387.22
387.3
387.24
387.29
387.24
387.29
387.46
387.31
387.44
387.54
387.24
387.5
387.49
387.49
387.7
387.31
387.44
387.54
387.45
387.53
387.25
387.7
387.53
387.46
387.53
387.67
387.77
387.67
387.55
387.64
387.79
387.65
387.57
387.63
388.01
387.67
387.55
387.86
387.81
387.84
388.04
387.86
388.02
387.66
387.98
387.91
387.97
387.92
387.75
387.9
387.98
387.91
387.97
387.92
387.96
387.93
387.74
387.9
387.98
387.92
387.97
387.92
387.96
387.93
387.74
387.91
387.97
387.92
387.96
387.93
388.16
387.97
387.71
387.94
387.94
388.16
387.97
387.92
387.96
387.93
387.95
387.94
388.16
388.18
387.94
388.16
387.97
388.13
387.99
387.9
388.19
387.94
387.94
387.95
387.94
388.16
387.96
387.93
387.96
388.14
387.98
388.12
388.21
388.13
387.99
388.11
388.01
387.88
388
387.89
387.99
387.9
387.77
387.88
388
387.89
387.99
387.9
387.98
388.12
388
388.1
388.02
388.09
388.03
387.86
388.02
388.09
388.03
388.07
388.25
388.09
387.82
387.63
387.8
387.65
387.57
387.63
387.79
387.65
387.56
387.43
387.55
387.65
387.56
387.43
387.75
387.69
387.53
387.67
387.76
387.68
387.53
387.46
387.73
387.92
387.54
387.66
387.77
387.88
387.57
387.63
387.79
387.65
387.78
387.67
387.76
387.68
387.75
387.69
387.73
387.71
387.72
387.51
387.68
387.54
387.24
387.72
387.5
387.48
387.5
387.49
387.49
387.71
387.52
387.68
387.54
387.87
387.59
387.41
387.78
387.66
387.77
387.67
387.54
387.87
387.8
387.64
388
387.9
387.77
387.67
387.97
387.92
387.75
387.9
387.98
387.91
387.76
387.68
387.96
387.93
387.74
387.91
387.97
387.92
387.96
387.92
388.17
388.17
387.95
388.15
388.19
388.15
387.97
388.13
388.21
388.35
388.23
388.12
388.22
388.34
388.24
388.32
388.25
388.3
388.48
388.32
388.46
388.34
388.24
388.32
388.46
388.33
388.45
388.56
388.68
388.57
388.45
388.56
388.68
388.57
388.66
388.58
388.86
389.05
388.88
388.82
388.87
389.04
388.89
389.02
389.12
388.82
388.87
388.83
389.07
389.51
389.55
389.94
389.81
390.13
390.07
389.91
390.06
389.92
390.04
389.94
390.03
390.16
390.04
389.93
390.24
390.19
390.02
389.96
390.22
390.21
390
390.19
390.24
390.2
390.01
389.96
390
389.55
389.3
389.31
389.3
389.1
388.42
388.59
388.44
388.14
388.19
388.15
388.18
387.95
387.73
387.71
387.72
387.51
387.27
387.06
387.02
387.06
386.61
386.79
386.84
386.59
386.39
386.14
386.35
386.38
386.15
386.14
386.15
386.15
386.14
385.94
386.11
385.97
385.88
385.96
385.89
386.16
385.71
385.89
385.95
385.89
385.74
385.66
385.53
385.84
385.79
385.61
385.57
385.6
385.79
385.61
385.78
385.42
385.53
385.63
385.76
385.85
385.78
385.63
385.97
385.88
385.75
385.86
385.98
385.87
385.76
385.85
385.98
385.87
385.97
385.88
385.96
385.89
385.74
385.87
386.17
385.91
385.93
386.13
386.16
386.14
385.94
385.91
385.93
386.12
385.96
385.89
386.15
386.14
385.94
386.12
386.17
386.13
385.95
385.89
386.36
386.17
385.91
386.14
385.94
386.33
385.99
386.07
386.21
386.08
386.2
386.1
386.19
386.32
386.2
386.3
386.22
386.08
386.2
386.09
386.4
386.14
386.15
386.35
386.38
386.57
386.2
386.31
386.42
386.12
385.96
386.3
386.22
386.29
386.23
386.07
386.42
386.11
386.17
386.12
386.16
386.34
386.18
386.11
386.17
386.12
386.16
386.13
386.15
386.35
386.18
386.33
386.2
386.31
386.22
386.29
386.44
386.31
386.22
386.29
386.23
386.49
386.48
386.48
386.7
386.5
386.47
386.28
386.45
386.51
386.46
386.5
386.68
386.31
386.63
386.57
386.61
386.58
386.39
386.56
386.62
386.57
386.61
386.58
386.6
386.59
386.59
386.6
386.58
386.81
386.4
386.55
386.63
386.56
386.41
386.33
386.4
386.55
386.42
386.12
386.38
386.36
386.37
386.16
386.34
386.4
386.34
386.61
386.37
386.37
386.36
386.38
386.36
386.17
386.12
386.38
386.36
386.38
386.15
386.14
386.36
386.38
386.15
386.14
386.36
386.38
386.15
386.14
386.36
386.38
386.15
386.14
386.36
386.38
386.15
386.35
386.39
386.35
386.18
386.32
386.41
386.12
385.96
386.3
386.23
386.07
386.01
385.84
385.99
385.65
385.75
385.86
385.97
386.08
385.79
385.62
385.98
385.87
385.76
385.85
385.99
385.86
385.77
385.84
385.99
385.86
385.98
385.87
385.96
385.88
385.95
386.1
385.97
386.08
385.99
385.86
385.98
386.08
385.99
386.07
386.21
386.09
385.99
385.86
385.97
385.88
385.96
385.89
385.94
386.11
385.96
386.1
385.98
386.08
385.99
385.65
385.95
385.7
385.9
386.15
385.93
385.92
386.13
385.96
386.09
385.99
386.06
386.23
386.07
386.22
385.87
386.18
386.32
386.21
386.08
386.21
386.09
386.41
385.92
386.34
386.39
386.35
386.39
386.35
386.39
386.35
386.38
386.56
386.62
386.57
386.62
386.57
386.61
386.57
386.61
386.79
386.85
386.58
386.6
386.79
386.84
386.79
386.84
386.8
386.84
386.8
386.63
386.98
386.89
386.75
386.88
386.97
386.9
386.74
386.89
386.96
386.91
386.74
386.89
386.75
386.88
386.76
386.87
386.77
386.86
386.78
386.85
386.79
386.84
386.8
386.83
387.01
386.86
386.78
386.85
387
387.08
386.8
387.04
387.05
387.04
387.05
387.03
387.05
387.03
387.05
387.03
387.06
387.24
387.09
387
387.29
387.03
387.05
387.03
387.05
387.03
387.27
387.27
387.27
387.26
387.27
387.26
387.27
387.26
387.48
387.5
387.48
387.5
387.49
387.5
387.7
387.53
387.46
387.73
387.5
387.7
387.74
387.7
387.95
387.94
387.74
387.7
387.52
387.67
387.55
387.44
387.75
387.48
387.51
387.48
387.5
387.48
387.5
387.48
387.29
387.67
387.76
387.47
387.51
387.47
387.72
387.72
387.51
387.69
387.74
387.69
387.74
387.7
387.73
387.92
387.76
387.89
387.78
387.87
388.01
387.68
387.96
387.93
387.96
387.93
387.95
388.15
387.97
388.13
388.21
388.14
387.99
387.9
387.98
388.12
388
387.9
387.98
388.12
388
388.1
388.02
388.08
388.03
388.07
388.26
388.3
388.48
388.32
388.46
388.55
388.47
388.54
388.7
388.56
388.68
388.36
388.63
388.62
388.41
388.59
388.64
388.82
388.66
388.59
388.86
388.84
388.64
388.82
388.87
389.04
388.68
388.78
388.91
388.8
388.89
388.81
388.88
388.82
388.87
389.04
388.68
388.78
388.9
388.8
388.89
388.81
388.67
388.79
388.68
388.78
388.49
388.52
388.71
388.54
388.48
388.32
388.67
388.58
388.45
388.56
388.46
388.76
388.72
388.32
388.67
388.58
388.65
388.59
388.85
388.85
388.85
388.85
389.05
389.1
389.05
389.1
389.05
389.32
389.08
389.08
389.28
389.53
389.31
389.29
389.52
389.54
389.31
389.51
389.54
389.3
389.3
389.31
389.3
389.52
389.33
389.28
389.53
389.53
389.32
389.5
389.56
389.5
389.34
389.48
389.58
389.49
389.36
389.46
389.59
389.47
389.58
389.48
389.57
389.7
389.6
389.47
389.37
389.66
389.63
389.43
389.62
389.66
389.63
389.65
389.86
389.67
389.63
389.44
389.82
389.49
389.56
389.71
389.58
389.7
389.6
389.47
389.58
389.27
389.33
389.28
389.32
389.29
389.1
389.06
389.09
389.28
389.11
389.26
389.13
389.24
388.93
388.98
389.16
389
389.14
389.02
389.12
389.25
389.14
389.23
389.15
389.22
389.16
389
389.14
389.23
389.37
389.25
389.35
389.26
389.12
389.04
389.32
389.29
389.1
389.27
389.33
389.49
389.13
389.23
389.15
389.22
389.16
389
388.93
388.99
388.94
388.98
388.95
388.97
388.96
388.75
388.93
388.99
388.94
388.98
388.95
388.97
388.95
388.75
388.93
388.57
388.88
388.83
389.07
389.08
388.85
388.85
388.84
389.07
388.86
389.05
389.09
389.06
389.08
389.28
389.11
389.26
389.12
389.03
389.32
389.08
389.07
389.29
389.1
389.06
389.09
389.07
389.08
389.28
389.1
389.26
388.92
389.21
388.96
388.95
389.18
388.98
389.16
388.99
389.36
389.25
389.13
389.02
388.91
389.22
389.17
388.99
389.15
389.22
389.16
389
389.14
389.22
389.16
389.21
389.38
389.02
389.33
389.28
389.11
389.26
389.13
389.24
389.15
389.22
389.37
389.24
389.35
389.47
389.37
389.45
389.6
389.26
389.34
389.48
389.57
389.5
389.34
389.48
389.57
389.49
389.35
389.48
389.79
389.52
389.32
389.5
389.55
389.72
389.36
389.67
389.62
389.66
389.63
389.65
389.64
389.64
389.65
389.64
389.87
389.45
389.6
389.47
389.79
389.73
389.57
389.71
389.8
389.51
389.54
389.52
389.53
389.53
389.31
389.51
389.54
389.52
389.32
389.29
389.52
389.54
389.52
389.54
389.73
389.79
389.51
389.55
389.51
389.76
389.54
389.74
389.56
389.5
389.56
389.72
389.79
389.73
389.57
389.7
389.8
389.93
389.61
389.88
389.87
389.65
389.85
389.67
390.05
389.51
389.76
389.97
389.79
389.94
389.81
389.92
390.04
389.94
389.82
389.7
390.02
389.96
389.8
389.94
390.03
390.16
390.05
389.93
390.04
389.94
390.02
389.95
390.01
390.17
390.04
389.94
390.24
390.19
390.02
390.17
390.25
389.97
390
390.19
390.23
390.2
390.01
390.17
390.25
390.18
390.24
390.19
390.23
390.2
390.22
390.21
390.22
390.21
390.21
390.43
390.24
390.4
390.26
390.17
390.47
390.21
390.22
390.43
390.46
390.43
390.24
390.19
390.44
390.44
390.23
390.2
390.44
390.66
390.46
390.64
390.49
390.4
390.48
390.62
390.71
390.63
390.49
390.61
390.51
390.59
390.53
390.57
390.76
390.38
390.5
390.6
390.73
390.62
390.5
390.6
390.73
390.4
390.69
390.66
390.68
390.88
390.71
390.85
390.94
390.65
390.69
390.66
390.89
390.91
390.46
390.64
390.7
390.65
390.69
390.66
390.68
390.66
390.46
390.64
390.49
390.83
390.54
390.36
390.73
390.62
390.72
390.42
390.68
390.67
390.67
390.67
390.67
390.68
390.66
390.89
390.9
390.69
390.65
390.69
390.65
390.9
390.68
390.66
390.89
390.91
390.89
390.91
390.68
390.88
390.7
390.86
390.94
390.65
390.9
390.9
390.9
390.9
390.68
390.87
390.92
390.88
390.92
390.88
391.13
391.13
390.91
391.1
391.15
391.11
390.94
391.08
391.17
391.09
391.17
391.1
391.16
391.1
391.15
391.11
391.15
391.11
391.14
391.12
391.14
391.33
391.17
391.09
391.37
391.35
391.37
391.35
391.15
391.32
391.18
391.3
391.2
391.28
391.22
391.26
391.45
391.28
391.22
391.26
391.23
391.25
391.25
391.24
391.47
391.26
391.23
391.25
391.24
391.03
391.22
391.26
391.44
391.29
391.21
391.06
391.4
391.32
391.17
391.52
391.43
391.29
391.2
391.28
391.42
391.3
391.19
391.29
391.42
391.1
391.37
391.35
391.36
391.15
391.32
391.4
391.31
391.19
391.28
391.44
391.28
391.43
391.29
391.43
391.29
391.64
391.33
391.39
391.33
391.39
391.54
391.42
391.3
391.63
391.34
391.59
391.58
391.59
391.37
391.56
391.61
391.56
391.61
391.57
391.61
391.57
391.39
391.54
391.63
391.55
391.63
391.55
391.62
391.77
391.65
391.53
391.64
391.54
391.63
391.55
391.84
391.58
391.59
391.8
391.84
391.59
391.59
391.59
391.8
391.62
391.56
391.61
391.57
391.82
391.6
391.58
391.6
391.58
391.6
391.58
391.6
391.58
391.6
391.58
391.6
391.37
391.57
391.82
391.6
391.58
391.6
391.58
391.6
391.79
391.63
391.77
391.65
391.53
391.86
391.78
391.85
391.79
391.85
391.79
391.84
391.58
391.81
391.62
391.78
391.64
391.75
391.67
391.51
391.87
391.98
391.9
391.75
391.89
391.76
391.88
391.77
392.08
392.02
391.86
391.78
392.07
392.03
391.85
392.01
392.09
392.01
391.87
391.99
392.1
392
392.09
392.01
391.87
391.99
391.89
391.97
392.12
392.2
392.14
391.97
392.12
391.99
392.1
392
392.31
392.26
391.87
391.99
392.31
392.25
392.09
392.02
392.08
392.24
392.1
392.01
391.87
392.2
392.13
391.98
392.33
392.02
392.07
392.03
391.84
391.8
391.62
391.78
391.85
392.01
391.87
391.99
392.1
392.22
392.12
391.99
392.1
392.22
392.33
392.23
392.32
392.46
392.34
392.23
392.32
392.46
392.34
392.44
392.14
391.97
391.9
391.96
391.92
392.16
392.38
392.4
392.61
392.21
392.55
392.47
392.54
392.7
392.34
392.44
392.57
392.67
392.59
392.45
392.57
392.68
392.58
392.45
392.56
392.68
392.58
392.45
392.78
392.72
392.55
392.48
392.75
392.74
392.52
392.72
392.76
392.73
392.54
392.49
392.53
392.5
392.3
392.48
392.54
392.49
392.32
392.47
392.33
392.45
392.35
392.43
392.58
392.45
392.35
392.43
392.58
392.45
392.35
392.43
392.37
392.63
392.41
392.38
392.85
392.43
392.58
392.45
392.35
392.65
392.61
392.42
392.8
392.47
392.54
392.49
392.31
392.68
392.58
392.67
392.59
392.65
392.61
392.64
393.05
392.91
392.81
392.9
393.04
392.92
392.81
392.9
393.04
392.92
393.02
393.15
393.04
393.14
393.05
393.12
393.06
393.11
393.07
393.1
393.3
393.13
393.06
393.12
393.5
393.39
393.26
393.16
393.46
393.42
393.02
393.15
393.25
393.17
393.02
393.15
393.25
393.39
393.05
393.12
393.06
393.11
393.07
392.89
393.05
392.91
393.03
392.93
393.23
393.19
393
392.95
393.2
393.21
392.98
393.19
393.22
393.41
393.02
393.15
393.26
393.38
393.06
392.9
393.26
392.95
393.21
393.2
393.2
393.43
393.23
393.19
393.44
393.23
393.18
393.23
393.18
393.45
393.21
393.42
393.24
393.39
393.26
393.15
393.25
393.38
393.27
393.36
393.29
393.34
393.31
393.11
393.29
393.35
393.3
393.33
393.32
393.32
393.54
393.34
393.74
393.61
393.51
393.59
393.74
393.61
393.51
393.38
393.71
393.64
393.7
393.65
393.69
393.66
393.68
393.88
393.7
393.86
393.72
393.62
393.71
393.64
393.7
393.65
393.69
393.66
393.68
393.66
393.67
393.67
393.45
393.43
393.44
393.65
393.47
393.63
393.49
393.61
393.51
393.59
393.74
393.6
393.51
393.59
393.74
393.6
393.73
393.4
393.68
393.88
393.49
393.61
393.51
393.59
393.52
393.58
393.75
393.6
393.73
393.61
393.72
393.63
393.7
393.64
393.91
393.68
393.65
393.91
393.68
393.88
393.7
393.86
393.94
393.87
393.71
393.63
393.92
393.89
393.69
393.87
393.72
393.85
393.74
393.83
393.97
393.84
393.95
393.86
393.94
394.09
393.96
393.85
393.95
393.86
393.94
393.87
393.93
393.88
393.92
394.11
394.16
393.9
393.9
394.12
394.14
394.13
393.92
394.1
394.16
394.11
394.16
394.12
394.37
394.16
394.11
394.16
394.11
394.16
393.9
394.13
394.14
393.91
393.89
394.13
394.14
394.13
393.92
394.1
394.16
394.11
393.94
394.08
394.18
394.09
393.96
394.07
394.2
393.86
393.94
394.09
394.18
394.09
393.96
394.07
394.19
394.3
394.21
394.06
394.42
394.32
394.19
394.09
394.18
394.53
394.23
394.05
394.22
394.06
394.2
394.08
394.18
394.09
393.96
394.29
394.22
394.06
394.2
394.29
394.44
394.09
394.17
394.1
394.16
394.33
394.18
394.1
394.39
394.36
394.16
394.12
394.15
394.34
394.17
394.32
394.41
394.12
394.37
394.37
394.36
394.16
394.11
394.6
394.38
394.57
394.41
394.33
394.62
394.59
394.39
394.35
394.38
394.57
394.41
394.55
394.65
394.56
394.42
394.54
394.65
394.56
394.43
394.54
394.44
394.3
394.65
394.56
394.42
394.54
394.65
394.56
394.42
394.54
394.66
394.55
394.65
394.78
394.67
394.55
394.65
394.56
394.64
394.35
394.6
394.61
394.59
394.61
394.59
394.62
394.58
394.84
394.83
394.62
394.58
394.84
394.83
394.84
394.61
394.81
394.64
394.79
394.88
394.8
394.65
394.77
394.89
394.78
394.88
394.79
394.87
394.8
394.86
394.81
394.86
394.82
394.85
394.6
394.82
394.86
394.82
394.86
394.82
394.85
394.82
395.07
394.85
395.04
395.1
394.83
394.84
394.83
395.06
395.08
394.84
395.05
395.09
394.84
395.05
395.09
395.05
395.3
395.09
395.05
394.87
395.24
394.93
394.97
395.16
394.77
395.12
395.03
395.11
395.03
395.1
395.04
394.88
395.02
395.12
395.03
395.33
395.28
395.1
395.26
395.13
395.24
395.15
395.22
395.16
395.2
395.18
395.19
395.19
394.96
395.17
395.2
395.4
395.22
395.38
395.24
395.36
395.26
395.13
395.24
395.36
395.26
395.34
395.27
395.33
395.28
395.32
395.29
395.31
395.52
395.33
395.28
395.32
395.51
395.34
395.49
395.58
395.51
395.57
395.52
395.55
395.53
395.54
395.54
395.54
395.54
395.53
395.55
395.74
395.37
395.46
395.83
395.72
395.83
395.5
395.79
395.97
395.82
395.72
396.04
395.98
396.04
395.76
396
396.01
396
395.79
395.97
396.04
395.98
395.82
395.73
396.03
395.99
396.03
395.77
395.99
396.02
395.78
395.77
395.99
396.02
395.78
395.77
396
396.02
395.78
395.77
395.78
395.98
395.81
395.95
395.84
395.93
396.08
395.72
396.04
395.98
396.04
395.76
396
396.23
396.25
396.23
396.25
396.24
396.25
396.02
396
396.02
396.22
396.27
396.22
396.04
396.19
396.07
396.17
396.31
396.4
396.33
396.16
396.32
396.39
396.34
396.38
396.14
396.33
396.4
396.1
396.59
396.38
396.57
396.4
396.55
396.42
396.31
396.4
396.55
396.42
396.53
396.44
396.73
396.7
396.72
396.71
396.71
396.94
396.74
396.7
396.95
396.96
396.72
397.15
397.22
397.16
397.21
397.17
397.2
397.4
397
397.13
397.24
397.14
396.79
396.65
396.99
396.7
396.73
396.71
396.5
396.68
396.52
396.66
396.76
396.67
396.75
396.69
396.52
396.88
396.57
396.62
396.8
396.64
396.78
396.65
396.99
396.7
396.51
396.68
396.75
396.69
396.74
396.7
396.95
396.96
396.72
396.71
396.72
396.94
396.74
396.91
396.99
396.7
396.73
396.71
396.94
396.96
396.72
396.93
396.75
396.91
396.77
396.67
396.76
396.9
396.78
396.87
397.02
397.11
397.04
396.87
397.02
396.89
396.79
397.09
397.06
397.07
397.07
396.84
397.05
397.08
397.06
397.07
397.29
397.1
397.05
397.08
397.28
397.11
397.26
397.13
397.46
397.4
397.23
397.16
397.21
397.39
397.23
397.15
397.44
397.2
396.96
397.17
397.2
397.18
396.97
396.94
396.74
396.92
396.98
396.93
396.75
397.13
396.8
396.86
397.04
396.88
397.02
396.89
396.78
396.88
396.8
396.86
397.03
396.88
397.01
396.9
396.99
396.92
396.98
396.93
396.97
397.16
396.77
397.11
397.26
396.91
396.99
396.92
397.2
397.18
396.97
397.16
397.21
396.95
396.95
397.18
397.2
397.18
396.97
397.16
396.99
397.14
397.23
397.15
397.22
397.38
397.24
397.14
397.23
397.15
397.22
397.16
397.21
397.39
397.23
397.15
397.22
397.38
397.25
397.14
397.45
397.18
397.19
397.41
397.22
397.38
397.24
397.36
397.48
397.37
397.25
397.13
397.46
397.4
397.23
397.37
397.47
397.83
397.52
397.34
397.5
397.57
397.52
397.56
397.54
397.55
397.55
397.54
397.78
397.12
397.47
397.61
397.49
397.59
397.5
397.58
397.74
397.6
397.72
397.61
397.7
397.85
397.94
398.09
398.18
398.32
398.2
398.31
398.21
398.29
398.22
398.28
398.24
398.49
398.5
398.49
398.95
398.55
398.89
398.82
399.1
399.31
399.12
399.29
399.36
399.53
399.38
399.29
399.58
399.78
399.6
399.54
399.59
399.78
399.83
399.79
400.04
399.83
399.78
400.06
400.03
400.07
400.03
400.29
400.28
400.3
400.5
400.78
400.76
400.78
400.53
400.75
400.78
400.98
400.81
400.73
400.8
401.19
401.08
401.17
401.1
401.15
401.34
401.17
401.33
401.18
401.31
401.2
401.3
400.98
401.03
401.22
401.28
401.45
401.31
401.2
401.3
401.44
401.09
401.16
401.56
401.43
401.55
401.22
401.5
401.71
401.3
401.43
401.55
401.67
401.57
401.43
401.55
401.66
401.57
401.65
401.59
401.86
401.86
401.62
402.06
401.68
401.79
401.69
401.77
401.93
401.57
401.65
402.03
401.71
401.76
401.72
401.75
401.73
401.74
401.96
401.76
401.94
401.78
401.92
402.03
401.93
401.79
401.91
401.81
401.67
401.79
401.91
402.03
401.93
401.79
401.91
402.04
402.15
401.83
401.88
402.06
402.13
402.08
401.89
402.06
402.14
402.07
402.12
402.08
401.89
402.06
401.91
402.04
401.93
402.02
401.94
401.78
401.93
401.8
401.68
401.78
401.7
401.54
401.68
401.78
401.48
401.51
401.49
401.5
401.5
401.49
401.5
401.48
401.51
401.25
401.26
401.24
401.49
401.27
401.46
401.52
401.47
401.29
401.45
401.53
401.46
401.3
401.21
401.51
401.48
401.28
401.45
401.31
401.43
401.33
401.41
401.57
401.42
401.56
401.44
401.54
401.45
401.31
401.65
401.58
401.41
401.57
401.65
401.58
401.64
401.6
401.62
401.61
401.61
401.62
401.6
401.86
401.63
401.83
401.65
401.81
401.9
401.82
401.66
402.03
401.93
401.79
401.92
402.03
401.93
401.79
401.92
402.03
401.71
401.76
401.95
402
402.19
401.57
401.65
401.81
401.9
401.82
401.43
401.77
401.93
401.56
401.66
401.58
401.65
401.81
401.67
401.79
401.69
401.78
401.48
401.73
401.74
401.72
401.75
401.72
401.76
401.94
401.8
401.68
401.79
401.68
402.02
401.71
401.98
401.74
401.73
401.96
401.99
401.74
401.74
401.96
402
401.96
402
401.96
401.77
401.93
402.03
401.93
402.25
401.97
402.21
402
401.95
402
401.96
402.22
402.22
402
402.18
402.03
402.15
402.28
402.16
402.05
402.14
402.07
402.12
402.32
402.13
402.3
402.14
402.52
402.19
402.48
402.91
402.99
402.91
403.21
403.41
403.92
404.16
404.18
404.62
404.93
405.35
405.45
405.82
406.19
406.79
407.21
407.3
407.92
408.08
408.18
408.55
409.17
409.33
409.66
410.08
410.42
410.36
410.65
411.11
411.18
411.36
411.21
411.34
411.46
411.35
411.69
411.87
412.42
412.66
412.69
412.91
413.19
412.95
413.15
413.47
413.42
413.47
413.42
413.47
413.42
413.47
413.66
413.75
413.66
413.74
413.9
414.25
414.18
414.49
414.22
414.22
414.45
414.01
414.15
414.04
413.88
414.27
413.93
413.99
413.93
413.98
413.94
413.74
413.67
413.73
413.43
413.45
413.44
413.45
413.2
413.18
413.44
413.21
413.17
413.2
413.18
413.44
413.22
413.16
413.22
412.45
411.92
412.14
412.67
412.92
412.95
413.16
412.98
412.89
412.98
412.89
412.97
412.89
412.73
412.86
413
412.63
412.72
412.64
412.95
412.68
412.68
412.92
412.47
412.61
412.5
412.35
412.73
412.63
412.72
412.64
412.71
412.89
412.74
412.86
413
412.87
412.99
412.89
412.98
412.9
412.97
412.9
412.96
412.68
413.15
412.99
412.88
412.98
412.88
412.98
412.89
412.74
412.86
413.01
412.86
413
412.63
412.96
412.67
412.92
412.71
412.65
412.94
412.69
412.67
412.69
412.67
412.93
412.94
412.69
412.67
412.69
412.9
412.72
412.87
412.75
412.61
412.5
412.35
412.73
412.63
412.48
412.6
412.51
412.58
412.53
412.33
412.51
412.58
412.76
412.6
412.75
412.38
412.46
412.39
412.69
412.67
412.44
412.64
412.71
412.89
412.73
412.63
412.72
412.88
412.98
412.66
412.93
413.18
412.72
412.88
412.98
412.89
412.97
412.91
413.19
412.95
412.67
412.92
412.94
413.17
412.73
412.87
412.99
413.13
413.01
412.87
412.99
412.88
412.74
412.86
412.99
412.88
412.74
412.62
412.72
412.88
412.51
412.82
412.56
412.54
412.56
411.58
411.49
411.1
411.67
412.13
412.2
412.14
411.95
412.12
412.21
412.13
411.96
412.11
411.98
411.86
411.72
411.84
411.98
411.86
411.72
411.84
411.98
411.86
411.72
411.6
411.71
411.62
411.45
411.36
411.44
411.38
410.95
411.08
410.97
410.83
410.72
410.58
410.7
410.59
410.45
410.34
410.44
410.35
409.95
409.83
409.94
409.84
409.69
409.59
409.44
409.57
409.22
409.05
408.97
408.8
408.72
408.32
408.43
408.33
407.95
407.82
407.47
407.3
407.22
406.82
406.71
406.35
405.96
405.83
405.26
405.06
404.78
404.33
404.26
403.86
403.53
403.13
402.79
402.63
402.09
401.87
401.84
401.19
400.86
400.47
400.35
399.78
399.6
399.32
398.89
398.38
397.92
397.66
397.22
396.72
396.26
395.79
395.31
395.08
394.62
394.15
393.9
393.48
392.97
391.91
390.88
390.71
389.78
389.53
389.32
388.65
388.38
387.99
387.68
387.54
386.82
386.61
386.37
385.75
385.45
385.3
384.8
384.4
383.71
383.28
382.83
382.4
381.75
381.29
380.67
379.99
379.37
378.9
378.31
377.61
376.83
375.91
375.32
374.64
374.06
373.39
372.41
371.89
371.19
370.44
369.95
369.02
368.31
367.59
366.89
366.17
365.49
364.76
364.1
363.18
362.51
361.8
360.77
359.47
358.43
357.53
356.89
356.19
355.55
355.04
354.78
354.12
353.64
353
352.17
351.67
351.07
350.55
350.48
350.02
349.57
349.28
348.85
348.37
347.94
347.63
347.39
346.92
346.49
346.02
345.92
345.34
344.5
343.9
343.26
342.99
342.57
341.79
341.32
340.75
340.42
340.39
340.09
339.71
339.06
338.5
338.02
337.96
337.37
337.08
336.7
336.24
335.69
335.37
335.02
334.38
333.84
333.37
333
332.39
331.68
330.76
330.03
329.29
328.86
328.48
328.2
327.69
327.23
326.89
326.43
326.09
325.34
324.95
324.69
324.18
323.88
323.41
322.79
322.46
322.01
321.68
321.39
320.92
320.6
320.31
319.98
319.84
319.24
319.05
318.5
317.98
317.73
317.38
316.97
316.62
316.23
315.87
315.62
315.14
314.72
314.53
314.14
313.65
313.39
313.2
312.82
312.46
311.95
311.71
311.38
310.98
310.66
310.26
310.2
309.71
309.47
309.41
309.19
308.84
308.48
308.12
308.17
307.73
307.31
307.15
306.89
306.59
306.06
305.47
305.07
304.63
304.23
303.93
303.67
303.38
302.86
302.67
302.45
302.13
301.9
301.59
301.48
301.44
301.09
300.89
300.69
300.35
299.89
299.41
299.07
298.73
298.41
298.31
298.15
298.16
298.03
297.89
297.89
297.64
297.24
296.84
296.95
296.73
296.55
296.45
296.42
296.2
296.14
296.07
296.01
295.82
295.74
295.81
295.75
295.43
295.46
295.32
295.31
295.33
295.06
295.17
295.07
295.04
294.82
294.77
294.81
294.66
294.55
294.4
294.4
294.53
294.29
294.26
294.17
294.25
294.18
293.99
294.15
294.14
294.02
294.01
294.14
294.03
294
294.15
294.13
294.15
294.01
294.14
294.15
294.26
294.16
294.25
294.3
294.37
294.31
294.36
294.44
294.49
294.45
294.48
294.58
294.61
294.59
294.61
294.72
294.74
294.72
294.73
294.97
294.88
294.96
294.89
295.08
295.16
295.09
295.27
295.24
295.14
295.35
295.17
295.44
295.45
295.44
295.58
295.58
295.82
295.73
295.81
295.86
295.94
296.12
296.21
296.38
296.36
296.5
296.63
296.76
296.89
296.89
296.9
297.02
297.16
297.16
297.41
297.44
297.41
297.56
297.56
297.68
297.7
297.68
297.83
297.82
297.95
297.96
298.08
298.22
298.35
298.36
298.47
298.5
298.48
298.63
298.75
298.77
298.87
299.03
298.77
298.5
298.36
298.35
298.61
298.64
298.74
298.78
298.86
299.04
299.01
299.04
299.14
299.3
299.41
299.44
299.54
299.71
299.69
299.83
299.96
300.61
300.93
301.03
301.2
301.3
301.34
301.43
301.49
301.56
301.75
301.71
301.75
301.97
302.17
302.12
302.29
302.53
302.58
302.53
302.83
302.83
302.96
302.97
303.09
303.25
303.23
303.25
303.36
303.53
303.64
303.67
303.77
303.82
303.77
304.07
304.2
304.22
304.33
304.37
304.46
304.51
304.59
304.66
304.86
304.95
304.86
304.94
305
305.09
305.14
305.23
305.28
305.5
305.43
305.49
305.57
305.77
305.86
305.78
305.84
306.05
306
306.18
306.16
306.17
306.42
306.47
306.56
306.61
306.7
306.76
306.84
306.9
306.85
307.02
307.14
307.3
307.29
307.3
307.43
307.44
307.57
307.59
307.7
307.87
307.86
307.86
307.86
307.99
308.15
308.01
308
308.14
308.29
308.29
308.43
308.44
308.43
308.57
308.58
308.57
308.72
308.58
308.7
308.73
308.71
308.86
308.86
308.99
308.88
308.97
309.3
309.28
309.3
309.28
309.3
309.55
309.61
309.69
309.62
309.67
310.04
309.99
310.03
309.99
310.3
310.3
310.16
310.42
310.33
310.54
310.5
310.53
310.64
310.81
310.81
310.94
311.1
311.09
311.24
311.1
311.36
311.27
311.35
311.42
311.49
311.56
311.64
311.71
311.78
311.86
311.79
311.99
312.09
312.14
312.1
312.13
312.24
312.28
312.38
312.29
312.37
312.58
312.53
312.57
312.54
312.43
312.52
312.45
312.51
312.32
312.2
312.04
311.9
311.89
311.76
311.74
311.89
311.77
311.86
312.34
312.46
312.64
312.48
312.62
312.63
312.76
312.65
312.75
312.79
312.89
313.08
313.06
313.21
313.22
313.21
313.22
313.2
313.36
313.36
313.5
313.38
313.62
313.55
313.47
313.82
313.66
313.66
313.93
313.97
314.08
313.98
314.06
314.27
314.22
314.27
314.37
314.56
314.53
314.56
314.67
314.85
314.83
314.85
314.97
315.14
315.14
315
315.25
315.32
315.26
315.45
315.56
315.61
315.7
315.63
315.69
315.92
316
315.93
315.98
316.09
316.13
316.24
316.14
316.37
316.45
316.52
316.73
316.69
316.58
316.68
316.73
316.97
317.04
316.99
317.03
317.14
317.33
317.31
317.18
317.29
317.47
317.46
317.61
317.77
317.76
317.77
317.62
318.04
317.96
317.89
318.09
318.2
318.25
318.06
318.08
318.35
318.26
318.33
318.27
318.32
318.56
318.5
318.7
318.81
318.71
318.79
318.73
318.78
319.02
318.95
319.01
319.1
318.74
318.48
318.29
318.45
318.46
318.44
318.47
318.58
318.63
318.57
318.78
318.88
318.94
318.73
318.92
319.04
319.09
319.03
319.09
319.18
319.25
319.18
319.39
319.49
319.55
319.35
319.53
319.51
319.81
319.69
319.8
319.86
319.94
319.87
320.07
320.19
320.08
320.18
320.09
320.46
320.28
320.29
320.42
320.46
320.57
320.47
320.7
320.8
320.85
320.81
320.84
320.82
320.97
320.99
320.96
321.14
321.12
321.15
321.12
321.44
321.15
321.41
321.33
321.4
321.48
321.56
321.64
321.71
321.65
321.56
321.64
321.86
321.81
321.71
321.8
322.01
321.97
321.86
321.96
322.01
322.11
322.17
322.27
322.18
322.25
322.34
322.41
322.5
322.42
322.48
322.58
322.64
322.44
322.61
322.76
322.77
322.77
322.77
322.92
323.07
323.09
322.92
323.07
323.23
323.24
323.23
323.25
323.23
323.54
323.27
323.51
323.45
323.49
323.6
323.51
323.74
323.83
323.75
323.82
323.91
323.83
323.9
323.84
324.18
324.18
324.03
324.16
324.05
324.29
324.23
324.28
324.39
324.44
324.55
324.45
324.54
324.61
324.55
324.75
324.87
324.91
324.88
324.75
325.01
324.79
324.98
325.11
325.14
325.26
325.16
325.1
325.45
