1219.9
1218.3
1219.7
1219.7
1219.7
1219.7
1219.1
1219.6
1219.8
1219.6
1219.8
1219
1219.1
1219.6
1219.8
1219.6
1219.8
1220.3
1220.5
1219.7
1219.7
1219.7
1220.4
1219.8
1219
1219.7
1220.4
1219.8
1219.7
1219.8
1220.3
1220.5
1219.7
1220.4
1220.4
1221
1220.5
1220.3
1221.1
1221
1220.5
1220.3
1220.5
1221
1219.9
1220.8
1220.7
1220.7
1221.4
1220.8
1221.3
1220.8
1220
1220.7
1220.8
1220.7
1221.4
1220.1
1220.6
1220.8
1221.3
1220.9
1221.3
1220.9
1221.2
1220.9
1221.8
1220.4
1221
1221.2
1220.9
1222.5
1221.1
1221.7
1221.8
1221.1
1221.7
1221.2
1221.6
1221.9
1221
1221.8
1221.1
1221.7
1221.8
1221.7
1221.7
1221.8
1221.7
1221.8
1221.7
1222.4
1221.8
1222.3
1222.5
1221.7
1221.8
1221.7
1221.1
1222.3
1221.9
1222.2
1222.6
1222.3
1222.6
1221.7
1221.2
1222.2
1221.3
1222.1
1221.5
1221.3
1222.1
1220.8
1221.3
1220.8
1221.3
1221.5
1220.7
1221.4
1220.2
1219.3
1220.7
1218.8
1218.6
1218.2
1217.3
1218
1218
1217.4
1218.6
1217.5
1218.4
1217.7
1217.7
1218.3
1217.1
1218.2
1218.5
1218.2
1218.5
1217.6
1219
1218.5
1218.2
1219.1
1218.3
1219
1218.4
1218.3
1219
1218.4
1218.3
1218.5
1218.3
1219.1
1217.7
1218.3
1219
1218.4
1218.3
1218.4
1218.9
1219.1
1217.7
1218.9
1218.5
1218.9
1219.2
1218.3
1219.1
1219
1218.4
1218.9
1218.5
1218.9
1218.6
1218.2
1219.8
1219
1219.1
1219
1219
1219.7
1219.1
1218.9
1219.7
1219.1
1219.6
1219.1
1219.6
1219.9
1218.9
1219.7
1219.7
1219.1
1219.6
1219.8
1220.2
1220.5
1219.6
1220.4
1219.7
1220.3
1219.8
1219.6
1220.4
1219.7
1219.7
1220.3
1220.4
1221
1219.9
1220.2
1220.6
1220.2
1220.6
1220.2
1220.5
1220.9
1220.6
1220.8
1220.7
1220.1
1220.6
1220.2
1221.2
1220.9
1220.6
1220.9
1220.6
1220.8
1220.7
1220.1
1221.2
1220.3
1219.9
1220.8
1221.3
1220.9
1220
1220.1
1221.3
1220.3
1220.5
1220.3
1221.1
1221.7
1220.5
1220.9
1220.6
1220.9
1221.2
1220.3
1221.1
1221
1220.4
1221.6
1221.2
1220.9
1221.2
1221
1221.8
1221.1
1221.7
1221.8
1221
1221.8
1221.1
1221.7
1221.8
1221.1
1221.7
1221.8
1221.7
1222.5
1221.1
1221.7
1221.2
1221.6
1221.9
1221.6
1222.5
1222.4
1221.2
1221.6
1221.9
1222.3
1221.3
1221.5
1222
1222.2
1222
1221.5
1221.3
1222.1
1222.1
1221.4
1222.7
1222.2
1222.6
1222.3
1221.9
1222.9
1222.1
1222.1
1222.7
1222.8
1222.8
1222.1
1222.7
1222.2
1222
1222.2
1222
1223.4
1222.9
1222
1224
1222.3
1223.2
1223.1
1221.9
1223.6
1222.7
1222.2
1223.3
1223
1222.6
1222.3
1221.9
1222.9
1222.7
1222.8
1222.7
1222.8
1223.4
1222.3
1223.2
1223
1223.2
1223.7
1223.2
1223
1223.2
1222.4
1223.7
1223.3
1222.3
1223.2
1223
1223.8
1223.1
1223.1
1223.7
1223.9
1223.1
1223.1
1223.1
1223.8
1223.2
1223.7
1223.2
1223.6
1223.9
1223.7
1223.9
1223.1
1223.1
1224.3
1223.3
1223.6
1223.4
1222.9
1224
1223
1223.2
1223
1222.5
1223.6
1223.3
1223.5
1224
1222.9
1223.9
1223.1
1223.1
1224.4
1222.7
1223.5
1223.4
1223.4
1224.1
1222.9
1224
1223.6
1223.3
1223.6
1224
1223
1223.8
1223.8
1224.5
1224.5
1223.8
1223.8
1223.8
1224.4
1223.9
1223.7
1223.8
1223.7
1223.8
1223.8
1224.4
1224.5
1223.8
1224.4
1224.5
1223.8
1224.4
1224.5
1224.4
1224.5
1223.8
1225.1
1224.6
1224.4
1224.6
1224.4
1224.5
1224.4
1224.5
1225.1
1224
1224.9
1224.1
1224.1
1225.4
1223.6
1224.6
1224.4
1224.5
1225.1
1224.6
1225
1225.3
1224.4
1224.5
1223.8
1225.1
1225.9
1224.5
1225.7
1224.7
1225.6
1224.8
1224.1
1226
1225
1224.6
1225
1224.7
1225.6
1224.8
1224.8
1225.5
1224.9
1225.4
1224.9
1225.4
1225.6
1224.8
1225.5
1225.5
1224.2
1225.4
1225
1225.9
1225.8
1225.3
1225.7
1225.9
1225.8
1225.3
1225.7
1226.6
1225.8
1225.8
1225.9
1225.8
1226.5
1225.2
1226.4
1226.7
1226.4
1226.6
1226.4
1226.6
1226.5
1225.9
1226.4
1226.6
1225.8
1226.5
1226.6
1226.5
1226.6
1225.8
1227.1
1226.6
1226.4
1226.6
1226.5
1227.2
1225.9
1227
1227.4
1227
1228
1226.5
1227.2
1227.9
1227.3
1227.1
1227.3
1227.1
1227.9
1227.2
1227.8
1227.3
1227.1
1227.3
1227.1
1227.9
1227.9
1227.3
1227.8
1227.4
1227.7
1228.1
1227.1
1228
1227.8
1228
1227.9
1227.9
1227.9
1227.3
1227.8
1228
1227.8
1228
1227.8
1228
1228.5
1227.4
1228.3
1228.2
1228.3
1228.9
1227.7
1228.8
1227.8
1228.6
1229.2
1228.1
1228.4
1228.1
1228.3
1229.5
1228.5
1228.7
1228.5
1228.7
1229.2
1228.7
1228.5
1228.7
1228.5
1228.7
1228.5
1228.6
1229.2
1228.1
1229
1228.9
1227.7
1229.4
1228.6
1228.6
1229.2
1228.7
1229.2
1229.4
1229.2
1229.3
1229.2
1230
1229.3
1228.6
1229.3
1228.6
1229.8
1229.4
1229.1
1229.4
1229.2
1229.4
1229.2
1228.7
1229.8
1228.9
1229
1229.5
1229
1229.5
1229.1
1229.4
1229.8
1229.5
1229.7
1229.5
1229.1
1229.5
1229.1
1230.1
1229.9
1230
1229.9
1229.4
1230.5
1229.5
1229.7
1230.2
1229.1
1230
1229.3
1229.3
1230.6
1229.4
1229.8
1230.1
1229.8
1230.1
1229.2
1230
1230
1229.3
1229.9
1230
1230.6
1230.1
1229.9
1230.7
1230
1229.9
1230.6
1230
1230.6
1230.1
1229.9
1230.7
1230
1230.6
1230.7
1230.6
1230.7
1229.9
1230.6
1230.7
1230
1230.6
1230.7
1230.6
1230.7
1229.9
1230.6
1230.7
1230.6
1230.7
1230.6
1231.3
1230.7
1229.9
1230.6
1230.7
1231.3
1230.8
1230.5
1231.4
1230.7
1231.3
1230.7
1230.6
1231.4
1230.7
1230.6
1230.7
1230.6
1231.3
1230.7
1230.6
1230.7
1231.2
1231.4
1230.6
1230.7
1231.3
1231.4
1231.3
1231.4
1231.3
1231.4
1231.3
1232
1231.4
1230.6
1232
1231.5
1231.3
1231.4
1231.3
1232.1
1231.4
1232
1231.5
1231.2
1232.8
1231.4
1231.3
1231.4
1231.3
1232
1231.4
1231.9
1232.1
1231.3
1232.7
1232.1
1232.6
1232.2
1231.9
1232.8
1232
1231.4
1232.6
1232.2
1231.9
1232.2
1231.9
1232.8
1232
1232.1
1232
1232
1232.7
1232.1
1232.6
1232.2
1232.5
1232.9
1231.9
1232.8
1232.7
1232.1
1232.6
1232.2
1232.5
1232.9
1231.9
1232.8
1232.7
1232.8
1233.4
1232.8
1233.3
1232.9
1232.6
1233.5
1233.3
1233.5
1233.4
1232.8
1233.9
1233
1233.8
1234.4
1233.2
1233.6
1233.2
1234.2
1234
1233.5
1234
1233.6
1233.9
1233.7
1233.2
1233.6
1233.9
1233.7
1233.9
1233.7
1233.8
1233.7
1233.1
1235
1233.4
1233.4
1234.1
1234.2
1234.7
1233.6
1234.6
1235
1234
1234.2
1234
1234.8
1234.8
1233.5
1234.6
1233.7
1234.5
1235.1
1233.9
1234.3
1234.6
1234.3
1234.6
1234.4
1235.2
1235.1
1234.5
1235.7
1234.7
1234.9
1235.4
1235
1236
1235.1
1235.2
1235.1
1235.2
1235.8
1235.2
1235.1
1235.9
1235.9
1235.8
1235.2
1235.1
1235.9
1234.5
1235
1235.3
1235.7
1235.3
1235.7
1236
1235.7
1235.4
1236.3
1235.5
1235.5
1235.5
1235.5
1236.2
1235.5
1236.1
1236.2
1235.5
1236.1
1235.6
1235.4
1237
1235.5
1236.1
1235.6
1236.1
1236.3
1235.5
1236.8
1236.3
1235.4
1236.2
1236.2
1236.9
1236.3
1236.2
1236.9
1236.9
1236.2
1236.2
1236.2
1236.8
1236.3
1236.8
1236.4
1236.7
1237.1
1236.7
1237.1
1236.8
1236.4
1237.3
1237.8
1237.4
1237.8
1237.4
1238.4
1238.2
1238.4
1238.9
1238.5
1238.8
1239.2
1238.8
1238.5
1238.8
1239.8
1239.6
1239.2
1240.1
1239.3
1238.7
1239.9
1239.5
1239.9
1239.5
1239.2
1239.5
1239.2
1240.1
1240
1238.7
1239.9
1238.9
1240.4
1239.8
1239
1240.3
1239.1
1240.2
1239.3
1239.4
1240.6
1239.5
1239.8
1239.6
1239.1
1240.8
1240
1240
1240.7
1240.1
1240.6
1239.5
1239.8
1240.2
1239.2
1240.1
1240
1240.1
1240.7
1239.5
1239.9
1240.2
1239.9
1240.2
1240.6
1240.2
1240.5
1240.3
1241.1
1240.4
1239.7
1240.4
1240.4
1241
1239.8
1240.2
1239.9
1240.2
1240.6
1240.2
1239.9
1240.9
1240
1240.7
1240.8
1240.7
1240.8
1240
1240.7
1240.8
1240.7
1240.8
1241.4
1241.5
1240.8
1240.7
1241.4
1240.8
1241.3
1240.9
1240.6
1241.5
1241.4
1241.5
1241.4
1241.5
1241.4
1240.8
1241.3
1241.5
1240.7
1241.4
1241.5
1241.4
1241.5
1240.8
1242
1240.9
1240.6
1241.6
1240.7
1241.4
1241.5
1240.8
1242
1241
1241.2
1241.7
1241.9
1241.7
1241.2
1241.7
1241.9
1241.7
1241.8
1241.1
1241.1
1241.8
1241.1
1242.4
1241.9
1242.3
1242
1241.6
1241.9
1241.7
1241.9
1242.4
1242
1241.7
1241.9
1242.4
1242.6
1241.8
1241.8
1242.4
1242.6
1243.1
1242
1242.3
1242.7
1242.3
1242.6
1242.4
1242.6
1243.1
1242
1242.9
1242.8
1242.9
1242.8
1242.2
1243.4
1242.3
1242.6
1243
1243.4
1243.7
1242.8
1242.9
1243.5
1243
1242.7
1242.9
1243.4
1243.7
1242.8
1242.9
1243.5
1242.9
1243.5
1243
1243.4
1243
1242.7
1243.7
1243.5
1243
1243.4
1243
1244
1243.2
1243.2
1243.9
1243.3
1244.4
1243.5
1243.6
1244.8
1243.8
1244
1243.8
1244
1244.5
1243.4
1243.7
1244.1
1244.4
1244.1
1243.7
1244.1
1244.4
1244.1
1244.4
1243.5
1243.6
1244.8
1243.8
1244.7
1243.9
1243.9
1244.6
1244
1245.2
1244.1
1244.4
1245.5
1244.5
1244.7
1245.2
1244.8
1244.5
1244.1
1245.1
1245.5
1244.5
1245.4
1244.6
1244.6
1245.3
1244
1244.5
1244.7
1245.2
1244.8
1244.5
1245.4
1244.6
1244.6
1245.3
1245.4
1245.3
1244.7
1245.2
1246.1
1244.7
1245.2
1245.5
1245.9
1246.2
1244.6
1245.3
1245.3
1246
1245.4
1244.6
1245.3
1246
1244.7
1245.2
1245.5
1245.2
1246.1
1245.3
1246
1246.1
1245.3
1246
1244.8
1245.8
1245.6
1245.1
1246.2
1245.9
1246.2
1245.9
1245.5
1246.5
1245.7
1246.3
1246.4
1245.6
1246.4
1245.7
1246.3
1245.1
1246.2
1246.6
1246.2
1245.9
1246.2
1245.2
1246.7
1246.8
1246
1246.7
1245.5
1246.5
1246.3
1246.5
1246.3
1245.8
1246.9
1246.6
1246.9
1246.6
1246.2
1246.6
1246.9
1246.6
1246.9
1246.6
1246.8
1246.7
1246.1
1247.3
1246.3
1245.8
1246.9
1246.6
1246.8
1246.7
1246.8
1247.3
1246.9
1246.6
1246.8
1246.7
1247.5
1247.5
1246.8
1247.4
1246.8
1247.3
1246.9
1247.3
1247.6
1247.3
1247.6
1247.3
1247.5
1247.4
1247.5
1248.1
1247.6
1248
1247.6
1247.3
1248.3
1247.4
1247.5
1247.4
1248.1
1248.2
1247.4
1247.5
1248.1
1248.2
1248.1
1247.6
1248
1248.3
1247.3
1248.2
1248.1
1247.6
1248
1248.3
1248.7
1248.4
1248
1249
1248.1
1247.6
1248
1248.3
1248.7
1248.4
1248
1249
1248.8
1249
1248.8
1248.9
1248.8
1248.3
1248.7
1249
1248.1
1249.5
1248.3
1249.3
1249.2
1248.6
1249.1
1248.6
1249.1
1249.3
1249.2
1249.2
1249.2
1248.5
1249.2
1248.6
1249.8
1248.7
1249
1249.4
1249.8
1250.1
1249.2
1248.6
1250.4
1248.8
1249.6
1248.9
1249.5
1250.4
1248.9
1249.5
1249.6
1249.5
1249.6
1248.9
1249.5
1249.6
1249.5
1250.3
1249.6
1250.2
1249.7
1250.1
1250.4
1249.5
1249.6
1250.2
1250.4
1250.2
1249.7
1250.1
1250.4
1250.2
1250.4
1250.2
1249.7
1250.8
1250.5
1250.1
1250.5
1250.1
1250.4
1250.2
1251.1
1251
1249.7
1250.1
1250.4
1250.2
1250.4
1250.2
1251
1250.3
1250.2
1251
1250.3
1250.3
1251
1250.4
1250.9
1249.8
1250.7
1250.7
1250.6
1251.4
1250
1251.2
1250.8
1251.2
1250.8
1250.5
1250.7
1251.2
1250.8
1251.2
1250.2
1251.1
1250.9
1251.1
1251
1251
1251
1251
1251
1251
1251
1250.3
1250.9
1251.1
1250.9
1251.1
1251
1251.7
1251.1
1250.9
1251.1
1251.6
1251.8
1250.9
1251.7
1251.7
1251.8
1251.7
1251.1
1250.9
1251.8
1250.3
1251.6
1251.2
1250.8
1251.1
1250.9
1251.1
1250.9
1250.4
1251.5
1250.6
1250.7
1251.3
1250.1
1251.1
1250.2
1250.3
1250.9
1251.1
1250.9
1250.4
1250.9
1251.1
1250.2
1251
1250.4
1250.9
1251.8
1250.3
1251.6
1251.2
1251.5
1251.2
1250.8
1251.8
1251
1250.4
1250.9
1250.5
1251.5
1250.6
1250
1251.2
1250.2
1250.4
1250.2
1249.7
1250.8
1250.5
1250.7
1251.2
1250.1
1250.4
1250.2
1251.1
1251
1250.4
1250.9
1249.8
1250.7
1250.6
1250
1250.5
1250.1
1250.5
1250.1
1249.8
1250.7
1250.6
1250
1251.2
1250.2
1250.4
1250.2
1251
1251
1249.7
1250.8
1251.1
1250.9
1251.1
1250.3
1250.3
1251.6
1250.5
1250.8
1250.5
1250.7
1251.9
1250.9
1251.8
1251
1251
1251
1251
1251.7
1250.4
1250.9
1251.1
1250.9
1251.1
1250.9
1251.1
1252.3
1250.6
1251.4
1251.4
1251.3
1252.1
1250.7
1251.2
1251.5
1251.3
1251.4
1251.3
1251.4
1252
1250.8
1251.2
1251.5
1251.9
1251.6
1251.9
1252.3
1251.2
1251.5
1252.6
1251.6
1251.8
1251.7
1251.8
1252.4
1251.8
1251.6
1251.8
1252.3
1252.5
1251.7
1251.7
1252.4
1251.8
1252.3
1251.9
1252.3
1251.9
1251.5
1252.5
1251.7
1251.7
1252.4
1251.8
1253
1252
1251.5
1252.6
1251
1251.7
1251.8
1251.7
1252.4
1251.8
1253
1252.6
1251.6
1251.8
1251.7
1252.4
1252.4
1251.8
1252.4
1252.5
1252.4
1251.8
1252.3
1253.2
1252.4
1251.8
1252.3
1251.8
1252.3
1251.9
1251.5
1251.9
1251.6
1252.5
1252.4
1251.8
1253
1252
1252.8
1252.8
1251.4
1252.6
1251.6
1253.2
1253.1
1251.8
1253
1252.6
1252.2
1251.9
1252.2
1253.3
1253
1252.6
1252.3
1251.9
1252.9
1252.7
1252.2
1252.7
1252.2
1253.3
1252.4
1252.5
1253.1
1252.5
1253
1253.3
1253
1253.2
1253.1
1253.2
1253.1
1252.5
1253.7
1252
1252.8
1253.5
1252.9
1254.1
1253
1253.3
1253.7
1252.7
1253.6
1253.5
1252.9
1254.1
1252.4
1253.1
1253.2
1253.1
1253.8
1252.5
1253
1253.3
1253.1
1253.2
1253.1
1253.2
1253.8
1252.6
1253.6
1253.4
1252.9
1253.4
1253
1252.6
1252.9
1252.7
1252.9
1253.4
1253.6
1252.8
1252.1
1253.4
1253
1253.3
1251.7
1251.7
1252.4
1251.8
1252.3
1251.2
1252.2
1252.7
1251.6
1252.5
1251.7
1251.7
1253.1
1251.2
1252.1
1252
1251.4
1253.3
1252.4
1251.8
1252.3
1252.6
1253
1251.9
1252.9
1253.4
1251.6
1252.5
1252.4
1252.5
1252.4
1251.8
1253
1253.3
1253.1
1252.6
1252.3
1253.2
1252.5
1252.4
1253.1
1253.2
1252.5
1252.4
1252.5
1253
1253.3
1253
1253.3
1253
1253.3
1252.4
1253.2
1253.8
1253.3
1253
1253.2
1253.1
1253.9
1253.2
1253.8
1253.3
1253
1253.9
1253.2
1253.8
1252.6
1252.3
1253.9
1253.2
1253.1
1253.2
1253.1
1253.8
1253.2
1253.1
1253.9
1253.2
1253.1
1252.5
1253.7
1254
1253.7
1254
1253.7
1254
1253.7
1253.3
1253.7
1254.1
1253.7
1254
1253
1253.9
1253.8
1253.2
1254.4
1254.1
1254.3
1254.1
1253.6
1254.8
1254.4
1254.1
1254.3
1254.1
1255
1253.6
1254.1
1255.1
1253.5
1254.9
1254.3
1254.8
1253.7
1254
1255.1
1254.8
1254.4
1254.8
1254.4
1255.4
1254.6
1254.6
1255.3
1254.7
1255.9
1254.8
1255.1
1256.2
1255.2
1255.4
1255.2
1255.3
1256
1254.7
1255.1
1255.4
1255.2
1255.4
1254.6
1255.3
1255.3
1254.6
1255.9
1255.4
1255.2
1255.4
1254.6
1255.9
1256.1
1255.2
1256
1255.3
1256
1255.4
1255.9
1256.1
1255.9
1256.1
1256
1256.1
1256
1254.7
1255.1
1254.8
1254.4
1254.7
1254.4
1254.7
1254.5
1254.7
1255.8
1254.8
1255
1255.5
1254.4
1255.4
1254.5
1254.6
1255.9
1254.8
1255.1
1254.8
1255
1255.6
1254.4
1255.4
1255.2
1255.4
1256.6
1255.5
1255.1
1255.5
1255.1
1256.1
1254.6
1255.9
1256.1
1255.2
1255.4
1255.2
1255.4
1255.2
1255.4
1255.9
1255.5
1255.1
1256.1
1254.6
1255.9
1255.4
1255.2
1256.1
1255.3
1255.3
1255.3
1255.3
1256
1255.4
1255.9
1255.5
1255.8
1256.2
1255.2
1256.1
1256
1255.4
1256.5
1256.2
1255.1
1256.1
1255.9
1256.8
1256
1256
1257.4
1256.8
1256.6
1256.2
1255.9
1257.5
1256.8
1256.7
1256.8
1256.7
1257.5
1256.1
1256.6
1257.5
1256.7
1257.4
1257.5
1257.4
1257.5
1256.8
1258.1
1257.6
1258
1257.7
1257.3
1258.3
1258.1
1258.3
1258.8
1258.4
1259.4
1258.5
1258.5
1259.9
1258.7
1259.1
1258.7
1259
1259.4
1258.4
1258.6
1259.2
1258.7
1259.1
1258.7
1259.1
1259.4
1259.8
1259.5
1259.1
1259.4
1259.8
1259.5
1260.4
1259
1260.2
1260.5
1260.2
1261.2
1259.6
1260.3
1260.4
1260.3
1260.3
1260.4
1260.3
1261
1259.7
1260.2
1260.5
1260.2
1260.4
1259.6
1260.3
1260.4
1260.3
1261.1
1260.4
1261
1260.5
1260.2
1261.1
1261
1260.4
1261
1261.2
1261
1259.8
1260.1
1260.5
1260.2
1260.5
1260.2
1260.5
1260.9
1260.5
1260.9
1261.3
1260.2
1261.1
1260.4
1261
1261.1
1260.3
1261.7
1261.2
1261.6
1261.3
1261.6
1262
1260.9
1261.2
1261.7
1261.3
1261.6
1261.3
1261.5
1262.7
1261
1261.8
1261.8
1261.8
1261.1
1261
1261.8
1261.8
1261.8
1261.8
1261.8
1262.4
1261.9
1261
1261.8
1261.8
1262.5
1261.9
1261.7
1263.2
1261.9
1262.3
1262.7
1261.7
1263.3
1262.6
1262.5
1262.6
1261.8
1263.1
1262.7
1263.1
1262.8
1262.3
1262.7
1262.3
1262
1263
1262.2
1262.8
1263
1262.1
1263.6
1261.6
1263.3
1263.2
1262.6
1263.1
1262.7
1263.1
1262.7
1262.3
1263.4
1262.5
1262.6
1263.2
1262.6
1263.1
1262.7
1262.4
1262.6
1262.4
1263.3
1262.6
1262.5
1263.3
1262.6
1262.5
1262.5
1262.5
1263.2
1262.6
1263.1
1262.7
1262.3
1263.4
1262.4
1263.3
1262.5
1262.5
1263.9
1263.4
1263.1
1263.4
1262.4
1264
1262.6
1263.1
1263.4
1263.1
1263.4
1262.5
1263.2
1264.6
1262.8
1263.7
1263.6
1263.6
1263.6
1262.9
1264.9
1263.8
1264.1
1263.9
1264.1
1264.6
1264.2
1263.8
1264.8
1264
1264
1264.6
1264.1
1265.2
1264.2
1264.4
1265.7
1264.6
1264.8
1264.6
1264.8
1266
1265
1265.1
1265.7
1265.2
1265.6
1265.2
1265.6
1266
1265.7
1266.6
1265.8
1266.5
1266.6
1266.4
1268
1266.6
1267.8
1267.5
1267.8
1268.9
1267.9
1268.1
1269.3
1268.2
1268.5
1268.3
1269.1
1269.1
1268.4
1269.7
1269.9
1269.8
1269.9
1270.5
1271.3
1272
1271.4
1272.6
1272.2
1272.6
1273
1273.3
1274.4
1274.1
1275
1275
1275.7
1276.5
1276.5
1277.2
1277.9
1278
1278.6
1280.2
1280.9
1282.4
1281.8
1283.7
1284.8
1286
1286.4
1286.7
1290
1290.7
1291.5
1293
1293.1
1295.1
1296.2
1296.7
1298.4
1299.1
1299.9
1300.6
1301.5
1302.9
1302.4
1303.6
1304.7
1305.2
1305.5
1305.2
1306.9
1308.3
1307.8
1309
1308.7
1308.9
1309.5
1308.3
1310.1
1310
1309.3
1309.9
1309.4
1309.8
1309.5
1309.7
1311
1310.6
1310.9
1311.4
1311.7
1312.9
1311.9
1312
1313.4
1312.9
1314.1
1313.1
1314.7
1315.5
1314
1315.3
1315.7
1316.1
1316.5
1316.9
1318
1318.5
1318.8
1319.3
1319.6
1320.8
1320.5
1320.8
1322.1
1321.7
1322.8
1323.3
1325.1
1325.8
1325.1
1326.5
1326.8
1327.3
1328.4
1327.4
1329
1328.4
1328.9
1330.8
1329.8
1331.4
1330.8
1331.3
1332.4
1331.5
1331.5
1332.2
1332.3
1332.3
1332.3
1332.3
1332.3
1332.3
1333
1333.2
1333
1333.9
1332.4
1333
1333.2
1332.2
1333.8
1333.2
1333.7
1334.1
1332.2
1333.8
1333.2
1333.7
1333.3
1332.9
1334
1333
1333.1
1333.8
1332.5
1333.6
1332.7
1332.7
1333.5
1331.2
1333.2
1333
1331.7
1332.1
1331.7
1332
1331.1
1331.1
1331.8
1330.4
1331.7
1330.6
1330.8
1331.3
1330.8
1331.3
1330.9
1330.5
1330.9
1330.5
1330.8
1330.6
1330
1331.2
1330.2
1329.6
1330.9
1330.5
1330.8
1330.5
1330.8
1331.3
1330.1
1331.2
1330.3
1330.3
1331.8
1329.7
1330
1330.5
1330.1
1330.4
1330.1
1329.7
1330.1
1329.7
1330.8
1329.9
1329.9
1329.9
1329.8
1330.7
1329.2
1329.7
1330
1329
1329.8
1329.2
1329
1329.9
1328.3
1329
1328.4
1328.9
1329.2
1328.2
1328.3
1328.2
1327.5
1328.1
1328.4
1328.2
1329.1
1329.1
1329.8
1329.2
1328.9
1329.2
1328.9
1329.9
1328.3
1328.2
1329
1328.3
1327.4
1326.7
1327.3
1327.6
1326.6
1327.5
1327.4
1328.2
1329.1
1328.3
1328.9
1328.4
1327.4
1328.3
1327.5
1327.4
1327.5
1327.4
1327.5
1326.7
1326.6
1326.7
1325.9
1326.6
1326
1325.7
1326.7
1325.8
1326.6
1325.9
1326.5
1326.8
1325.8
1326.6
1325.9
1326.5
1326
1325.7
1326.8
1325.8
1325.1
1325.7
1325.2
1325.6
1324.6
1324.7
1325.4
1324.7
1326.1
1324.9
1324.5
1324.8
1323
1323
1323.1
1322.2
1323
1322.3
1322.2
1321.5
1320.7
1319.9
1319.9
1318.4
1318.9
1317.7
1319.5
1318.7
1317.9
1317.9
1317.1
1317.8
1316.5
1316.2
1317.2
1316.3
1316.3
1316.3
1316.3
1317.1
1315.6
1316.2
1315.7
1316.1
1316.5
1315.4
1316.3
1316.3
1315.6
1316.2
1316.4
1315.5
1315.5
1315.5
1316.2
1315.7
1315.4
1315.7
1314.6
1314.8
1314.6
1314.8
1314.6
1314.8
1314.6
1314.8
1314.6
1314.8
1313.2
1313.9
1314
1313.9
1313.2
1313.1
1312.5
1313
1313.3
1313.7
1312.7
1312.8
1313.4
1312.9
1314.1
1312.3
1313.2
1313.9
1313.2
1313.8
1313.3
1313.7
1314.1
1312.3
1312.4
1312.3
1312.4
1312.3
1310.9
1311.4
1311
1310.6
1311
1309.9
1310.8
1309.3
1309.2
1310
1309.3
1309.9
1308.6
1307.6
1308.5
1307.7
1307.6
1307
1306.8
1307
1306.1
1306.1
1306.8
1306.2
1306
1305.5
1305.2
1305.5
1305.2
1305.5
1304.5
1304.6
1304.5
1303.9
1304.4
1304
1302.9
1303.8
1302.3
1302.9
1303.1
1302.9
1303.8
1303
1303
1303.7
1303.1
1302.9
1303.1
1302.9
1303.1
1302.9
1302.4
1302.1
1302.4
1302.1
1300.9
1301.9
1301.1
1299.6
1297.4
1297.8
1301.1
1301.1
1301.1
1301.8
1302
1301
1301.9
1301.1
1302.5
1300.6
1301.5
1300.7
1300
1300.6
1299.3
1299.7
1299.4
1299
1298.6
1297.5
1297.7
1298.2
1297.8
1298.2
1296.4
1296.5
1297.2
1295.9
1296.3
1297.4
1298.6
1299
1297.9
1297.4
1297.1
1296.6
1297.8
1296.8
1296.2
1296
1296.1
1296.1
1295.4
1296
1295.4
1294.5
1294.6
1294.5
1293.8
1293.1
1293
1293.8
1293.1
1293
1292.3
1292.2
1292.3
1291.5
1291.5
1292.3
1290.8
1292.1
1291
1290.5
1291
1289.9
1290.1
1289.9
1289.4
1290.5
1289.5
1289
1289.5
1289
1289.4
1288.4
1288.6
1289.1
1287.9
1288.2
1288
1286.8
1287.1
1286.1
1287.7
1287.8
1287.7
1288.5
1287.8
1288.4
1287.1
1287.5
1287.9
1286.8
1287.8
1287
1286.2
1286.9
1286.3
1286.8
1286.4
1285.3
1286.3
1284.8
1285.3
1284.9
1283.8
1284.8
1284
1284
1283.2
1283.2
1283.9
1282.6
1282.3
1282.6
1281.6
1283.8
1282.7
1282.3
1283.3
1282.4
1282.5
1282.4
1282.5
1282.4
1281.1
1281.5
1282.6
1281.6
1281.7
1281
1281.6
1281.8
1280.9
1281.7
1281
1280.9
1280.3
1280.1
1281
1280.9
1281
1281.6
1280.4
1280.7
1280.5
1280
1280.4
1280
1280.4
1278.6
1279.5
1279.5
1278.8
1278.7
1278.7
1278.7
1278.7
1277.3
1277.8
1278.1
1277.1
1277.3
1276.5
1277.2
1276.6
1276.4
1277.2
1275.8
1275.6
1275.8
1275
1276.4
1275.8
1274.9
1275.7
1275.1
1275.6
1274.5
1274.1
1275.1
1274.9
1274.4
1273.4
1274.3
1274.2
1273.6
1273.4
1273.6
1273.4
1272.9
1272.7
1273.6
1272.8
1272.1
1272
1272.1
1272.7
1271.5
1271.1
1271.4
1271.2
1271.4
1270.5
1270.6
1271.2
1270
1269.7
1270.7
1269.1
1269.1
1269.1
1269.1
1269.8
1268.5
1268.9
1268.5
1268.2
1267.8
1266.8
1267.7
1266.9
1266.2
1266.8
1266.3
1266.1
1265.6
1264.6
1264.8
1264
1264
1264
1264
1264.7
1262.7
1262.4
1263.3
1261.8
1261.8
1261.2
1261.7
1261.9
1260.3
1261.1
1260.4
1261
1260.5
1259.5
1260.4
1260.3
1259.7
1259.6
1259
1259.5
1258.4
1258.7
1259.8
1258.8
1258.3
1258.1
1257.6
1258.7
1257.8
1257.2
1257.7
1257.2
1257.7
1256.6
1256.9
1256.6
1256.2
1256.6
1256.2
1256.5
1256.3
1255.1
1256.1
1255.3
1254.7
1255.2
1254.7
1255.1
1254.1
1253.6
1254.7
1253.8
1253.3
1253.1
1253.2
1253.1
1251.2
1251.5
1251.9
1251.5
1251.2
1250.2
1249.7
1250.1
1249.1
1249.3
1248.5
1248.5
1249.2
1247.9
1249
1248.1
1246.9
1247.3
1247
1247.2
1245.7
1245.7
1246.4
1245.1
1245.5
1244.5
1245.4
1245.3
1244
1244.5
1244.1
1243.8
1244
1243.2
1243.2
1243.8
1243.3
1243.8
1243.4
1243.7
1243.4
1242.4
1243.3
1243.2
1242.6
1243.1
1242.6
1243
1242
1241.6
1242
1241.6
1241.9
1241
1240.5
1241.6
1240.6
1240.8
1240.7
1240.1
1240.6
1240.2
1240.6
1238.9
1239
1240.3
1239.2
1240.1
1239.3
1239.3
1240
1239.4
1239.3
1238.7
1239.2
1239.4
1238.6
1238.7
1239.3
1238.7
1238.6
1238.7
1238.6
1238.7
1238
1237.9
1238.6
1238
1239.2
1238.2
1238.4
1238.2
1237.7
1238.2
1238.4
1238.2
1237.7
1236.9
1238.2
1237.7
1236.8
1237.6
1236.2
1237.5
1236.4
1236.7
1237.1
1235.4
1236.2
1236.2
1236.8
1237
1235.5
1236.1
1236.3
1236.2
1236.2
1235.5
1236.1
1236.3
1235.5
1236.2
1234.9
1236
1235.1
1234.6
1235.7
1235.4
1235
1234.7
1235
1235.3
1234.4
1234.5
1235.1
1233.3
1234.8
1234.2
1233.4
1234.7
1233.6
1233.9
1234.3
1233.3
1233.5
1232.7
1232.8
1233.4
1232.8
1233.3
1232.9
1233.2
1233
1232.5
1233.6
1232
1232.7
1232.8
1232.7
1232.8
1231.4
1232.6
1232.9
1232
1232.1
1232
1231.4
1231.9
1231.5
1232.5
1231.7
1231.1
1231.6
1231.1
1231.6
1231.2
1230.9
1231.1
1230.9
1231.1
1230.3
1230.3
1231
1230.4
1230.3
1229.7
1230.2
1229.7
1230.2
1229.8
1230.1
1229.2
1229.3
1229.2
1229.3
1229.9
1228.7
1229.1
1229.4
1229.2
1228.7
1228.5
1230
1228.7
1227.8
1228.6
1227.9
1228.5
1227.3
1227.7
1228.7
1227.2
1227.8
1228
1227.2
1227.9
1226.6
1227.7
1227.4
1227
1227.4
1226.4
1226.6
1226.5
1225.9
1226.4
1226
1226.3
1226.1
1225.7
1226.6
1225.2
1225.8
1225.9
1225.1
1225.8
1225.2
1225.7
1225.9
1225.1
1225.8
1226.5
1227.2
1228.5
1226.7
1227.6
1228.1
1227
1227.4
1227.1
1227.3
1227.1
1226.7
1227
1226.7
1226.3
1226.7
1225.7
1226.6
1226.5
1225.9
1226.4
1226
1226.4
1225.4
1225.6
1226.1
1225
1225.9
1225.1
1225.8
1225.2
1224.4
1225.1
1225.2
1225.2
1225.2
1225.2
1225.1
1224.5
1223.8
1225.1
1224.6
1224.4
1223.9
1223.7
1224.5
1223.8
1223.8
1224.4
1223.2
1224.3
1223.4
1223.5
1224.1
1222.9
1223.9
1223.7
1223.9
1223.1
1223.1
1223.7
1223.2
1223
1223.2
1222.4
1223.1
1222.5
1222.3
1222.5
1222.3
1223.1
1222.4
1222.4
1222.4
1221.8
1221.7
1221.8
1221.7
1221.8
1221.1
1221.7
1222.4
1221.8
1221.7
1220.5
1220.9
1221.9
1220.4
1221
1220.4
1220.3
1220.4
1219.7
1221
1219.9
1219.5
1220.5
1219.7
1219.8
1219
1219.7
1220.4
1219.1
1219
1219.1
1219.6
1219.8
1218.4
1219
1218.4
1218.9
1219.2
1218.3
1218.4
1218.3
1217.8
1218.8
1218.6
1218.1
1218.6
1217.5
1218.4
1217.6
1217.7
1217.7
1217.7
1217
1217
1217.7
1217.7
1217
1217.6
1217.1
1216.9
1217.7
1216.4
1216.9
1217.1
1216.3
1217
1216.4
1216.9
1216.5
1215.6
1217
1215.8
1215.6
1215.7
1215.6
1216.4
1215.7
1215.6
1215.7
1215.6
1216.3
1215.1
1215.5
1215.8
1214.9
1215.1
1214.9
1214.4
1215.5
1214.6
1214.7
1215.2
1214.1
1214.5
1214.1
1214.5
1214.2
1213.8
1214.1
1213.9
1213.4
1213.8
1213.5
1213.8
1213.5
1213.1
1213.5
1213.2
1213.4
1212.6
1212.7
1213.2
1211.5
1213
1212.3
1212.3
1213
1211.7
1212.2
1211.8
1211.5
1212.4
1211.6
1211.6
1211.6
1211
1212.2
1211.1
1211.4
1211.8
1210.9
1211
1210.9
1211
1210.9
1210.4
1210.2
1210.3
1210.3
1210.9
1210.4
1210.2
1209.8
1209.5
1210.4
1209.6
1210.3
1210.3
1209.7
1209.6
1209.7
1210.2
1209.2
1209.4
1209.8
1208.8
1209.7
1208.9
1209
1209.5
1209.1
1208.8
1208.4
1208.1
1209
1207.6
1208.2
1208.3
1207.6
1208.3
1207.7
1207.6
1208.9
1207.1
1208
1207.3
1206.6
1207.3
1206.1
1207.1
1206.8
1206.5
1206.7
1206.6
1206.1
1206.5
1206.1
1206.5
1205.5
1206.4
1205.6
1205.6
1205.6
1204.4
1204.8
1205.7
1204.9
1205
1204.3
1204.9
1204.4
1203.6
1204.9
1203.8
1203.5
1204.4
1203.7
1204.3
1203.7
1203.6
1204.4
1203.7
1204.3
1203.1
1202.9
1203.7
1203
1203
1202.4
1202.3
1203
1201.8
1202.2
1202.5
1201
1202.3
1201.8
1201.6
1201.8
1201.6
1201.8
1201
1201.7
1201.7
1201.1
1201.6
1201.8
1201
1201.7
1200.5
1200.9
1201.1
1200.3
1201
1199.8
1200.9
1200.5
1200.2
1200.5
1199.6
1199.8
1199.6
1199.8
1200.2
1199.3
1199.5
1199.3
1198.8
1199.3
1198.2
1198.5
1198.3
1197.9
1198.2
1198
1198.1
1198.6
1198.2
1198.6
1198.2
1197.9
1198.2
1198
1198.1
1198
1197.5
1198
1196.9
1197.8
1197.1
1197.7
1197.8
1196.5
1197
1197.1
1197
1197.1
1196.5
1197
1196.6
1196.3
1197.2
1196.4
1196.5
1195.8
1195.8
1196.4
1195.9
1195.7
1195.9
1195.7
1195.9
1195.1
1195.8
1195.8
1195.2
1195.1
1195.2
1195.1
1195.2
1193.9
1194.4
1195.1
1194.5
1194.4
1194.5
1194.4
1194.5
1193.8
1194.4
1193.9
1194.3
1193.4
1193.6
1194.1
1193.6
1192.8
1192.9
1192.9
1193.4
1192.4
1192
1193.6
1192.2
1192.8
1191.6
1191.5
1192.2
1191.6
1191.5
1191.6
1191.5
1191.6
1190.9
1191.6
1190.9
1190.9
1190.9
1190.3
1190.8
1191
1189.6
1190.2
1189.7
1190.2
1190.4
1190.2
1190.3
1189.6
1189.6
1190.2
1189.7
1190.1
1189.2
1189.4
1189.8
1188.8
1189.1
1189.5
1188.6
1188.7
1188.6
1189.3
1188.7
1188
1188.7
1187.4
1188.5
1188.1
1187.9
1188.7
1187.4
1187.3
1187.4
1187.3
1187.5
1186.7
1186.8
1187.2
1186.9
1186.6
1186.9
1187.2
1187
1185.3
1186.2
1185.4
1186.1
1186.1
1185.5
1186
1185.6
1185.3
1185.6
1184.7
1186.1
1184.9
1185.3
1185.6
1184.7
1184.9
1184.7
1184.3
1185.2
1184.4
1183.9
1183.8
1183.3
1184.4
1183.4
1184.2
1184.1
1183
1183.3
1183.1
1183.3
1183.7
1182.1
1183.5
1183.5
1182.9
1182.8
1182.3
1183.3
1182.5
1182.6
1183.1
1181.5
1182.3
1182.2
1182.3
1182.8
1181.8
1182
1182.4
1182.1
1182.4
1181.5
1181.7
1182.1
1181.8
1182.1
1181.8
1181.4
1181.2
1181.4
1181.8
1180.8
1181.1
1181.5
1181.1
1182
1180.7
1180.6
1181.3
1180.1
1181.2
1180.2
1181
1180.9
1179.8
1180.2
1180.4
1180.2
1180.4
1179.7
1179.7
1180.3
1179.8
1180.2
1179.8
1180.2
1179.9
1179
1179.2
1179.6
1179.2
1179.5
1179.2
1180.1
1179.4
1178.8
1179.3
1178.9
1179.2
1178.3
1178.5
1179.5
1178.7
1178.8
1179.3
1178.9
1179.2
1178.3
1179.1
1177.9
1178.3
1179.2
1178.4
1178.5
1178.4
1178.5
1178.9
1178.6
1177.7
1177.9
1177.1
1178.4
1177.9
1177.8
1178.4
1177.3
1177.7
1177.9
1177.1
1178.4
1177.3
1178.3
1178
1177.6
1177.4
1177
1177.9
1176.5
1177.2
1177.8
1177.2
1177.7
1177.3
1177
1177.9
1177.2
1177.2
1177.2
1176.6
1177.7
1176.2
1176.3
1176.8
1176.3
1176.8
1176.3
1176.7
1177.6
1176.9
1176.8
1176.3
1176.7
1177.6
1176.2
1177.4
1176.4
1176.1
1176.3
1176.7
1176.4
1176.7
1177.6
1178
1177.6
1178
1177.7
1177.9
1178.3
1177.4
1177
1177.3
1177
1176.7
1175.2
1175.3
1176.4
1174.9
1175.6
1175
1175.5
1176.3
1176.2
1176.9
1176.3
1176.8
1176.3
1176.1
1176.3
1176.2
1175.7
1176.7
1175.8
1176.5
1176.5
1176.5
1176.6
1175.3
1176.4
1176
1175.2
1176.5
1176.6
1175.9
1175.9
1175.9
1176.5
1175.9
1176.5
1176
1175.8
1176.6
1176
1175.9
1176.6
1175.9
1175.9
1175.3
1175.8
1176
1174.7
1175.2
1175.4
1175.2
1175.4
1174.6
1175.3
1175.3
1174.1
1174.5
1173.6
1173.8
1174.3
1173.8
1174.8
1174.5
1174.8
1174.5
1174.8
1175.7
1175.5
1175.1
1175.5
1175.1
1176
1174.6
1174.6
1175.2
1174.7
1174
1174
1174.6
1174.7
1174
1174.6
1174.1
1173.9
1174.1
1173.9
1174.1
1173.9
1174.1
1174.5
1174.2
1173.8
1173.6
1173.8
1174.3
1173.2
1173.6
1173.8
1173
1173.1
1173.1
1172.5
1173.1
1171.9
1172.3
1172.5
1172.4
1171.3
1171.1
1171.9
1173
1173.2
1173
1172.5
1174.1
1174.5
1174.2
1173.9
1173.6
1173.8
1173.6
1172.6
1173.5
1172.7
1172.8
1172.8
1172.2
1172.7
1171.6
1172
1171.7
1171.4
1171.6
1171.4
1171.6
1172
1171.1
1171.3
1171.1
1171.3
1171.7
1171.3
1171.7
1171.4
1171
1171.9
1171.7
1170.7
1171.6
1171.5
1172.1
1171.6
1171.4
1172.2
1171.5
1172.7
1171.1
1171.3
1171.7
1171.4
1171.6
1170.8
1171.5
1171.5
1170.9
1170.9
1170.9
1170.9
1170.9
1170.9
1170.8
1170.9
1170.2
1170.9
1170.9
1170.9
1170.3
1170.2
1170.9
1170.3
1170.2
1170.9
1170.3
1170.8
1169.8
1170.7
1170.5
1169.5
1170.4
1169.6
1169.7
1169
1169.6
1170.3
1169.7
1169.6
1170.2
1169.7
1169.6
1169.7
1169.6
1169.7
1169
1169.6
1169.1
1168.9
1169.7
1169
1169
1169.6
1169.1
1168.9
1168.5
1168.9
1169.2
1168.9
1169.1
1168.3
1168.5
1167.8
1168.4
1168.4
1167.8
1168.9
1169.1
1168.9
1169.7
1169.6
1169.1
1168.9
1169.1
1170.1
1169.2
1168.8
1169.2
1168.8
1169.2
1168.9
1169.2
1168.3
1169
1169
1169
1169
1169.6
1169.1
1169.5
1169.2
1168.9
1170.3
1169.6
1170.2
1169.7
1169.6
1170.3
1169.7
1169.6
1170.2
1169.7
1170.2
1169.8
1170.1
1170.4
1170.1
1171
1171.4
1171
1170.8
1171
1171.4
1171.6
1172
1172.9
1172.7
1173.4
1172.8
1172.2
1172.7
1172.8
1173.3
1173.5
1173.9
1175.9
1176
1176.4
1176
1174
1174.6
1175.9
1177.7
1179
1179.7
1180.3
1181
1182.2
1184.1
1185.4
1187.3
1188
1188.6
1189.3
1188.7
1189.2
1188.2
1188.5
1189.4
1188.6
1188.1
1186.7
1185.6
1184.7
1183.1
1183.3
1183.7
1182.7
1183
1181.6
1181.6
1181.6
1179.9
1177.8
1174.9
1172.1
1170.4
1168.4
1168.4
1169
1170.8
1171
1171.4
1172.8
1172.1
1170.4
1169.6
1168.6
1167.1
1165.5
1164
1164.1
1162.8
1163.4
1162.9
1162.2
1162.2
1161
1160.3
1159.8
1158.5
1158.5
1158.5
1158.5
1158.5
1157.9
1158.4
1157.5
1157.7
1158.1
1156.6
1157.3
1157.3
1156.8
1156.6
1155.6
1155.9
1155.7
1154.1
1155.5
1154.3
1154.2
1153.8
1153.5
1153.7
1152.4
1152.4
1151.9
1152.4
1151.9
1151.2
1151.3
1151.7
1152.5
1151.3
1150.6
1149.5
1149.3
1148.9
1149.3
1149
1148.6
1148.4
1148.6
1149
1148.1
1148.4
1148.1
1147.8
1148
1147.8
1147.4
1147.8
1147.4
1147.2
1146.8
1146.6
1147.3
1146.7
1146.7
1147.9
1146.8
1147.2
1146.3
1146.5
1146.3
1145.9
1145.7
1145.9
1145.7
1145.3
1145.1
1145.3
1144.6
1144.1
1144.6
1143.6
1143.9
1143.1
1143.2
1143.6
1143.2
1143
1142.7
1143
1142.7
1142.4
1142.7
1143
1142.2
1142.3
1142.2
1142.3
1142.8
1141.8
1142.1
1141.8
1142.1
1141.3
1140.3
1140.6
1140.9
1140.6
1140.3
1141.1
1141
1141.1
1141
1141.1
1141
1141
1141.1
1141
1141.1
1140.5
1141.6
1142.3
1142.8
1143.4
1143.4
1144.5
1145.3
1144
1144.6
1144.1
1144.5
1144.2
1143.9
1144.1
1143.9
1144.1
1144.5
1144.2
1143.9
1144.1
1143.9
1144.7
1144
1144
1144
1144
1144.6
1143.5
1143.3
1143.5
1143.4
1143.5
1142.8
1143.4
1143.5
1142.8
1142.8
1142.3
1143.3
1143.5
1142.2
1142.8
1142.9
1142.2
1142.8
1141.8
1142.6
1141.9
1141.9
1141.9
1141.9
1142
1141.3
1141.9
1141.9
1141.4
1141.3
1142
1141.3
1141.4
1140.8
1141.9
1141.4
1140.7
1140.8
1141.3
1141.4
1140.8
1140.2
1141.3
1140.9
1140.1
1140.2
1140.1
1140.2
1139.6
1139.5
1140.7
1139.7
1140
1139.2
1139.3
1140.3
1139.5
1139.7
1139.5
1139.6
1140.1
1139.1
1139.9
1139.8
1139.3
1139.8
1139.4
1139.7
1139.4
1139.2
1139.9
1139.3
1139.3
1139.3
1138.7
1139.2
1138.7
1139.2
1138.2
1138.5
1138.8
1138.6
1138.8
1138.6
1138.2
1138.6
1137.7
1138.4
1138.9
1137.9
1137.7
1138.5
1137.8
1137.8
1138.3
1138.4
1137.8
1137.2
1138.3
1137.9
1138.2
1138.5
1138.8
1143.5
1147.3
1149.6
1151
1150.9
1151
1150.3
1150.9
1151
1150.9
1150.9
1150.9
1150.4
1150.8
1149.9
1150.7
1150
1150
1150.6
1149.5
1149.9
1149.6
1149.3
1149.5
1149.9
1149.5
1149.3
1149.5
1149.3
1148.4
1148.7
1149.5
1149.3
1148.9
1148.2
1148.2
1148.8
1148.3
1148.7
1147.8
1148
1147.8
1148
1149
1147.6
1147.1
1148.1
1147.8
1148
1147.3
1146.8
1147.2
1146.3
1146
1145.7
1146.5
1146.4
1145.3
1145.7
1145.4
1145.6
1145.4
1145
1144.8
1145
1144.3
1144.9
1145
1143.8
1144.3
1143.8
1144.8
1143.9
1143.5
1143.3
1143.5
1143.4
1142.4
1142.1
1142.3
1141.6
1141.7
1142.2
1142.3
1142.2
1141.1
1141
1141.7
1141.1
1141
1140.5
1140.9
1141.2
1140.4
1141.1
1140.5
1141
1140
1139.8
1140
1138.7
1139.2
1139.3
1139.2
1139.9
1138.8
1139.2
1139.4
1139.2
1138.8
1138.6
1138.8
1138.6
1137.7
1137.9
1138.3
1137.4
1137.6
1136.9
1137.5
1136.4
1136.2
1136.9
1136.3
1136.9
1136.4
1135.7
1136.3
1136.3
1135.8
1135.7
1135.7
1135.7
1135.2
1135.6
1135.8
1136.2
1135.9
1135.1
1135.2
1136.2
1134.8
1134.9
1134.9
1134.3
1134.3
1133.7
1134.8
1133.8
1133.6
1133.8
1133.6
1133.2
1133
1132.6
1133.5
1132.7
1132.3
1132.1
1131.7
1132.1
1131.8
1131.5
1131.2
1130.9
1131.2
1130.9
1130.6
1130.9
1130.1
1130.2
1130.1
1129.1
1129.5
1128.6
1129.3
1129.3
1128.8
1128.7
1128.7
1128.7
1128.2
1128.1
1128.7
1127.1
1127.4
1128.3
1126.9
1127.1
1126.4
1127
1126.4
1125.8
1125.8
1125.8
1125.3
1125.8
1125.3
1125.7
1125.4
1124.6
1124.7
1124.6
1124.7
1124.6
1123.6
1124
1123.7
1123.9
1123.2
1122.7
1123.7
1122.3
1121.9
1121.7
1121.9
1121.7
1120.8
1120.5
1120.7
1120
1120.1
1119.5
1119.5
1119
1118.3
1119.5
1119
1118.3
1118.4
1118.3
1118.4
1117.8
1117.2
1117.7
1117.3
1117.7
1116.8
1116
1116.7
1116.1
1115.6
1115.5
1115.6
1115.5
1115
1114.9
1115
1114.9
1114.5
1114.3
1114.5
1114.3
1113.4
1113.7
1113.4
1113.1
1113.4
1112.6
1113.3
1113.2
1112.8
1113.2
1112.8
1113.1
1112.3
1112.5
1113.4
1112.6
1112.8
1112.6
1112.8
1112.6
1111.7
1112
1112.3
1112
1112.2
1111.5
1111.6
1112
1111.7
1112
1111.2
1111.4
1111.8
1110.9
1111.6
1111
1110.5
1110.9
1110.5
1109.8
1110.4
1110.4
1110.4
1109.9
1110.3
1110
1109.7
1110
1109.2
1109.9
1109.3
1109.3
1109.3
1109.3
1109.3
1109.3
1109.3
1109.9
1108.8
1109.2
1108.9
1108.6
1108.9
1108.7
1108.8
1108.7
1108.3
1108.6
1108.4
1108.6
1108.4
1108
1108.4
1108
1107.8
1108
1107.3
1107.4
1107.9
1106.9
1107.2
1106.9
1107.2
1106.4
1106.6
1107
1106.6
1106.9
1106.7
1106.4
1107.2
1106.5
1106
1106.4
1106.1
1106.4
1106.1
1105.8
1106.6
1105.4
1105.4
1105.4
1104.9
1105.4
1105.4
1105.4
1105.4
1105.4
1105.4
1104.9
1104.8
1104.9
1104.3
1105.3
1104.9
1104.8
1104.4
1103.7
1104.8
1104.4
1104.2
1104.9
1104.3
1104.3
1103.8
1104.2
1104.4
1103.7
1103.7
1103.7
1103.7
1103.7
1103.2
1103.7
1103.3
1102.6
1103.2
1103.2
1103.2
1103.2
1102.7
1103.1
1102.7
1102.5
1102.7
1102.5
1102.7
1102
1102.6
1102.6
1102.1
1102.6
1102.2
1102
1102.7
1102.6
1102.1
1102
1102.1
1102
1101.6
1102
1101.7
1100.9
1101.6
1101.5
1101.6
1101
1101.5
1101.6
1101.5
1101.6
1101
1101
1101
1101
1101
1100.5
1100.4
1101
1100.4
1100.4
1100.4
1099.4
1100.3
1100
1099.7
1100
1099.2
1099.9
1099.3
1099.8
1099.9
1099.3
1099.8
1098.9
1098.7
1099.4
1098.7
1099.3
1098.8
1098.7
1098.8
1098.7
1098.3
1098.1
1098.3
1098.1
1097.8
1097.6
1098.8
1098.2
1098.2
1097.7
1097.6
1098.2
1097.7
1097.6
1097.2
1097.1
1097.7
1097.1
1097.6
1097.2
1097
1097.2
1096.5
1096.6
1096.5
1096.6
1097.1
1096.1
1096.4
1096.2
1095.8
1096.7
1095.4
1096
1096
1096
1096.5
1095.6
1095.9
1096.1
1095.4
1095.5
1095.4
1095.5
1095.4
1095
1095.4
1095
1095.3
1095.1
1094.3
1095.5
1094.9
1094.4
1094.9
1095
1094.9
1094.4
1094.3
1095.4
1094.5
1094.3
1094.5
1093.8
1094.4
1093.8
1093.8
1094.3
1093.4
1093.7
1093.5
1093.6
1094.5
1093.2
1093.9
1093.3
1093.3
1092.8
1092.7
1093.3
1092.8
1092.7
1093.3
1092.8
1092.7
1092.3
1092.1
1092.3
1092.1
1092.3
1092.1
1091.7
1092.1
1091.8
1092
1092.4
1092.1
1092.3
1091.6
1092.2
1092.7
1091.8
1092
1091.8
1092
1091.9
1090.9
1091.8
1091
1090.7
1091
1091.2
1091
1090.7
