1903.7
1902.8
1903.6
1904.5
1905.3
1906.1
1905.4
1904.4
1905.3
1904.5
1905.2
1906.1
1906.9
1906.2
1905.3
1906.1
1907
1906.2
1906.9
1906.3
1906.8
1906.3
1906.7
1906.4
1906.7
1906.4
1906.6
1906.5
1908.1
1908.3
1906.6
1906.5
1908.1
1908.3
1906.5
1908.1
1908.3
1908.1
1908.2
1906.6
1908
1908.4
1908
1908.4
1908
1908.4
1908
1908.4
1908.1
1908.3
1908.1
1909.9
1909.9
1909.9
1908.3
1909.7
1910.1
1909.7
1910
1911.3
1911.8
1911.3
1910.2
1912.7
1912.1
1911
1913.6
1912.8
1913.5
1914.4
1913.7
1914.3
1915.4
1914.4
1915.3
1914.5
1915.2
1914.5
1915.2
1914.6
1915.1
1916.2
1915.3
1916.1
1915.4
1915.9
1917.1
1916
1917
1917.7
1917.1
1916
1918.5
1917.9
1916.9
1916.2
1916.8
1916.3
1916.7
1916.4
1916.7
1918
1916.8
1917.9
1918.5
1918
1916.9
1916.3
1915.2
1917.7
1917.1
1916
1918.6
1916.4
1916.7
1916.4
1916.6
1916.5
1916.5
1916.6
1916.5
1916.6
1916.5
1916.6
1916.4
1916.7
1916.4
1916.7
1914.8
1916.5
1915
1916.3
1916.7
1916.4
1915.1
1916.2
1916.8
1916.3
1915.2
1916.1
1916.9
1914.6
1915.1
1916.3
1915.2
1914.5
1915.1
1916.2
1915.3
1914.5
1915.2
1916.1
1915.4
1914.4
1915.3
1914.5
1915.2
1916.2
1915.3
1916
1915.4
1915.9
1915.5
1914.2
1915.4
1914.4
1915.3
1914.5
1915.2
1916.1
1915.3
1914.5
1915.2
1914.6
1915.1
1914.6
1915
1914.7
1915
1914.8
1914.9
1913.3
1913.1
1914.9
1914.8
1914.9
1914.8
1914.9
1914.8
1915
1914.8
1915
1914.7
1915
1914.7
1915
1914.7
1915
1913.2
1913.2
1914.7
1915
1913.2
1914.8
1913.4
1914.6
1913.6
1912.8
1913.5
1914.5
1913.7
1914.3
1915.4
1912.8
1913.5
1912.9
1915
1913.2
1913.2
1914.8
1913.4
1914.6
1913.6
1914.4
1913.7
1912.7
1913.6
1912.8
1915.1
1914.6
1913.5
1914.5
1913.7
1912.8
1913.6
1912.9
1915
1913.2
1913.2
1913.2
1913.2
1914.8
1913.4
1913
1913.3
1913.1
1913.3
1913.1
1913.2
1914.7
1913.4
1913
1914.9
1913.3
1913.1
1914.8
1913.3
1913.1
1913.3
1913.1
1913.3
1913.1
1913.2
1913.2
1913.2
1911.6
1913
1913.4
1913
1913.4
1913
1914.9
1913.2
1913.2
1913.2
1913.2
1913.2
1913.2
1913.2
1913.2
1913.2
1913.2
1913.2
1913.2
1913.2
1914.8
1913.4
1913
1914.9
1913.3
1913.1
1913.2
1913.1
1914.8
1913.4
1913
1913.3
1913.1
1913.3
1913.1
1913.3
1913.1
1913.3
1914.7
1913.5
1912.9
1913.4
1914.5
1913.6
1912.8
1913.6
1912.9
1913.5
1912.9
1913.4
1913
1913.4
1913
1913.4
1913.1
1913.3
1913.1
1911.7
1912.9
1913.5
1913
1913.4
1913
1913.4
1913.1
1911.8
1912.9
1913.5
1912.9
1911.9
1912.8
1913.6
1912.9
1911.9
1912.7
1912.1
1912.6
1913.7
1912.7
1913.6
1912.8
1913.5
1912.9
1913.4
1913
1913.4
1913.1
1913.3
1913.1
1913.2
1913.2
1913.2
1914.8
1911.8
1911.3
1911.7
1912.9
1913.4
1911.4
1911.6
1911.5
1911.5
1911.5
1913.1
1911.8
1911.3
1911.8
1911.3
1911.8
1911.3
1911.8
1911.3
1911.8
1911.3
1911.7
1911.3
1911.7
1911.3
1911.7
1911.3
1910.2
1911.1
1911.9
1911.2
1911.8
1911.2
1911.8
1911.3
1911.8
1909.8
1911.5
1910
1911.3
1911.8
1911.3
1910.2
1911.1
1911.9
1911.1
1910.3
1911
1912.1
1909.5
1911.8
1909.8
1910
1909.8
1909.9
1909.8
1909.9
1909.8
1909.9
1909.8
1909.9
1909.8
1909.9
1908.3
1909.7
1910
1908.2
1909.8
1909.9
1909.8
1909.9
1909.8
1909.9
1909.8
1909.9
1911.4
1910.1
1909.6
1911.6
1911.4
1911.6
1911.4
1910.1
1911.2
1911.8
1911.3
1913.3
1913.1
1911.7
1912.9
1913.5
1912.9
1913.4
1913
1913.4
1913
1913.3
1913.1
1913.3
1913.1
1913.3
1913.1
1913.2
1913.2
1913.2
1911.6
1911.4
1911.6
1911.4
1911.6
1911.4
1911.6
1911.4
1911.6
1911.4
1911.6
1911.4
1911.6
1911.4
1911.6
1909.9
1909.9
1909.9
1909.9
1909.9
1911.4
1910.1
1909.7
1910
1909.7
1911.6
1911.5
1911.5
1911.5
1911.5
1913.1
1911.7
1911.3
1913.3
1913.1
1911.7
1912.9
1915
1913.2
1913.2
1913.2
1913.2
1913.2
1913.2
1914.8
1914.9
1914.8
1913.4
1913
1914.9
1914.8
1914.9
1913.3
1914.6
1915.1
1914.7
1915
1913.1
1913.2
1914.7
1913.5
1914.5
1913.6
1914.3
1915.4
1914.4
1915.3
1914.5
1915.2
1914.5
1913.6
1914.4
1915.3
1914.5
1915.2
1914.5
1915.1
1914.6
1913.5
1914.5
1915.2
1914.5
1913.6
1914.4
1915.3
1914.5
1915.2
1914.6
1915.1
1914.7
1916.6
1915
1916.3
1915.2
1916.1
1917
1914.5
1916.7
1916.3
1916.7
1914.8
1915
1916.3
1915.2
1914.5
1915.2
1914.6
1913.6
1912.8
1915.1
1916.2
1916.9
1916.2
1916.8
1917.8
1918.6
1919.4
1921.9
1922.9
1925.2
1924.7
1926.7
1926.6
1928.3
1928.4
1928.3
1928.4
1928.3
1928.4
1928.2
1930
1930
1928.4
1928.2
1930
1930
1928.4
1928.2
1928.4
1929.8
1928.7
1928
1927.1
1927.8
1928.8
1926.3
1927
1926.3
1926.9
1924.8
1925.1
1924.8
1923.5
1923
1925
1923.3
1921.7
1921.5
1921.6
1921.5
1920.1
1919.7
1921.6
1920
1918.2
1919.7
1920
1919.8
1920
1921.4
1921.8
1923
1922
1922.8
1923.7
1924.4
1923.8
1925.9
1927.3
1927.6
1929
1929.3
1930.7
1932.6
1934.2
1932.7
1935.6
1934.7
1935.5
1939.6
1942.5
1941.5
1942.4
1943.3
1944.1
1943.4
1942.4
1941.6
1942.3
1941.8
1942.2
1941.8
1943.7
1943.8
1943.6
1943.8
1943.6
1947.1
1945.6
1946.9
1947.4
1950.2
1951
1951.9
1954.3
1955.5
1952.9
1951.9
1952.7
1952
1951
1951.9
1949.5
1949.9
1949.6
1948.2
1949.5
1946.8
1947.5
1946.9
1945.8
1946.8
1944.3
1943.2
1944.1
1944.9
1944.2
1941.6
1943.9
1945.2
1942.4
1943.2
1944.1
1943.3
1942.4
1941.6
1942.3
1941.7
1939
1938.2
1938.9
1938.3
1937.2
1936.5
1937.1
1936.6
1935.4
1934.9
1936.9
1936.8
1938.4
1940.3
1943.4
1945.6
1943.7
1945.4
1945.5
1947
1944
1945
1947.4
1950.2
1949.4
1948.4
1949.3
1948.5
1947.6
1946.7
1947.5
1945.2
1945.6
1945.3
1945.5
1945.3
1943.9
1945.1
1944.1
1943.4
1942.4
1941.6
1942.3
1941.7
1940.6
1939.9
1940.6
1940
1940.5
1941.7
1940.7
1943.1
1942.6
1944.6
1947.8
1949.8
1954.6
1958.5
1963.3
1964
1966.7
1969.3
1973.7
1974.9
1977.2
1980.2
1982.6
1983.8
1986.1
1987.5
1987.9
1990.9
1991.7
1994.4
1995.4
1997.9
1997.5
1997.8
1999.3
1998
1999.2
1998.1
1997.3
1998
1997.4
1996.2
1995.6
1996.1
1995.7
1996
1995.8
1994.2
1995.6
1992.7
1993.5
1991.2
1991.5
1991.3
1991.4
1989.7
1987.7
1987.8
1987.6
1987.8
1987.6
1987.9
1985.9
1987.7
1986.1
1985.8
1986
1985.9
1984.3
1984
1984.2
1985.8
1984.4
1985.6
1984.6
1985.4
1988
1987.5
1989.6
1989.5
1989.6
1989.5
1989.5
1987.9
1989.3
1991.5
1991.2
1991.5
1991.2
1991.5
1991.2
1993.2
1989.7
1989.3
1991.4
1991.3
1989.7
1987.7
1987.7
1989.4
1986.3
1985.6
1986.2
1985.7
1982.8
1983.6
1983
1980.1
1979.3
1978.2
1975.9
1976.2
1976.1
1974.4
1972.6
1970.8
1970.8
1967.4
1967.1
1965.6
1965.3
1963.9
1963.6
1962.2
1961.8
1960.4
1963.3
1959.2
1959.4
1959.3
1959.4
1959.3
1959.3
1959.4
1959.3
1957.8
1955.7
1954.3
1953.9
1954.3
1952.2
1954.1
1952.4
1952.3
1950.8
1950.5
1950.7
1950.5
1949.1
1950.3
1949.2
1948.6
1949.2
1948.6
1947.5
1948.5
1947.6
1946.7
1947.5
1946.8
1947.4
1948.5
1947.6
1945.1
1947.3
1948.7
1947.5
1948.5
1947.6
1946.7
1947.5
1948.5
1947.7
1946.7
1947.5
1946.8
1947.4
1945.3
1947.1
1945.6
1945.3
1947.2
1943.9
1945.2
1944
1945
1945.8
1943.5
1943.9
1943.6
1943.8
1943.6
1943.8
1945.3
1944
1943.5
1943.9
1945.2
1945.7
1945.2
1945.6
1945.3
1947.2
1945.6
1945.3
1947.2
1948.7
1949
1947.1
1948.8
1948.9
1947.2
1947.1
1948.8
1950.5
1950.7
1947.3
1948.6
1950.7
1950.5
1949.1
1948.7
1950.7
1952.2
1952.5
1952.2
1954.1
1955.7
1954.3
1953.9
1954.3
1957.2
1956.3
1957
1958.1
1957.1
1958
1957.2
1957.9
1957.3
1957.9
1958.9
1958
1957.2
1958
1957.2
1956.3
1957.1
1956.4
1956.9
1959.8
1957.3
1957.8
1957.4
1956.1
1957.2
1957.9
1955.7
1957.6
1957.6
1955.9
1957.4
1957.7
1954.2
1955.6
1957.7
1955.8
1955.8
1957.4
1954.5
1957
1958.2
1955.4
1956.3
1955.4
1957.8
1954.1
1955.7
1955.9
1957.4
1956.1
1953.9
1955.9
1955.8
1955.8
1955.8
1955.8
1954.2
1954
1955.8
1954.2
1955.6
1956
1954
1955.8
1954.3
1955.5
1956.1
1955.6
1954.4
1953.8
1954.4
1953.8
1956
1955.7
1954.3
1955.5
1957.8
1955.8
1955.9
1955.8
1957.5
1956.1
1955.6
1957.7
1957.5
1957.7
1959.1
1959.5
1959.1
1957.9
1958.9
1958.1
1958.7
1959.9
1960.4
1961.7
1960.5
1961.6
1962.2
1965
1964.2
1966.6
1967.8
1968.4
1969.5
1971.9
1973.1
1975.4
1975
1975.3
1976.7
1978.8
1977
1978.6
1980.6
1980.5
1980.6
1980.5
1980.6
1980.5
1980.6
1978.8
1980.4
1979
1980.2
1980.9
1980.3
1979.1
1980.1
1979.3
1979.9
1979.4
1979.8
1981.2
1979.9
1979.4
1978.2
1979.3
1979.9
1981.1
1980.1
1979.3
1978.3
1979.2
1978.4
1977.4
1978.3
1977.5
1978.1
1979.3
1978.3
1977.5
1976.5
1977.4
1975
1975.4
1975.1
1975.3
1975.2
1976.9
1975.5
1974.9
1977.1
1976.8
1978.8
1978.7
1978.9
1980.3
1980.8
1980.3
1982.5
1982.2
1982.5
1982.2
1984.2
1982.4
1984
1982.6
1983.8
1984.5
1985.5
1984.6
1985.4
1986.5
1987.1
1988.3
1987.2
1988.2
1987.3
1988.1
1989.1
1989.9
1989.2
1991.5
1989.5
1991.2
1989.8
1991
1993.4
1992.9
1993.4
1992.9
1993.4
1992.9
1993.3
1994.6
1996.9
1996.6
1998.6
1998.6
1998.6
2000.3
2000.6
2000.3
2002.2
2003.9
2004.2
2002.3
2003.9
2005.9
2005.9
2005.9
2005.9
2005.9
2007.6
2007.9
2007.6
2007.9
2007.6
2007.9
2009.3
2009.8
2007.6
2007.8
2009.4
2011.5
2009.6
2009.5
2011.3
2009.8
2009.4
2009.8
2009.4
2009.7
2011.1
2010
2009.2
2009.9
2011
2010.1
2009.1
2011.7
2011.1
2011.7
2011.2
2013.4
2013.2
2013.3
2013.2
2015
2016.9
2015.3
2016.7
2017.2
2018.5
2019.1
2016.8
2018.8
2018.8
2018.8
2018.8
2018.8
2018.9
2020.5
2019.1
2018.5
2019.1
2018.5
2019.1
2020.3
2019.3
2018.4
2019.3
2020.1
2021.2
2020.2
2019.4
2018.3
2019.3
2018.4
2019.2
2018.4
2019.2
2018.5
2019.1
2018.6
2019.1
2018.6
2017.3
2018.4
2017.5
2018.2
2017.6
2018.1
2017.8
2018
2019.6
2018.1
2021.2
2020.3
2019.3
2018.4
2019.2
2020.2
2019.4
2018.4
2019.2
2020.2
2021.1
2020.3
2021
2022.2
2021.1
2020.3
2021
2022.1
2021.2
2020.3
2021
2020.4
2020.9
2020.5
2020.8
2022.3
2021
2020.4
2020.9
2020.5
2019.1
2020.4
2019.2
2020.2
2019.3
2020.1
2019.5
2018.3
2017.6
2016.4
2017.4
2016.6
2015.6
2014.7
2015.4
2016.6
2015.6
2014.7
2013.7
2014.6
2015.6
2013
2013.5
2013.1
2011.7
2012.9
2013.5
2011.3
2011.5
2011.4
2011.4
2011.5
2009.6
2011.3
2011.5
2011.3
2009.8
2011.1
2011.6
2011.2
2009.9
2009.3
2009.8
2011.1
2010
2009.2
2009.9
2011
2010
2009.2
2009.9
2009.3
2009.9
2009.3
2009.8
2011.1
2010
2009.2
2009.9
2009.3
2009.8
2009.4
2008
2009.2
2009.9
2009.3
2009.8
2009.3
2008.1
2007.4
2008
2009.2
2008.2
2005.6
2006.1
2007.4
2006.3
2005.5
2006.2
2005.6
2004.5
2003.7
2004.4
2003.8
2000.9
2001.7
2001.1
1998.1
1999
1998.2
1998.9
1996.6
1995.2
1994.8
1993.4
1992.9
1991.7
1991
1991.6
1989.4
1989.6
1989.5
1989.6
1989.5
1986.2
1985.7
1986.1
1985.8
1982.7
1983.7
1982.9
1981.9
1981.1
1981.7
1981.2
1979.9
1979.4
1978.2
1979.3
1976.6
1977.3
1976.7
1977.2
1975.1
1973.6
1973.3
1973.5
1971.7
1971.6
1971.7
1971.5
1971.8
1969.9
1969.9
1969.8
1969.9
1966.5
1966.2
1966.5
1966.3
1964.8
1966.1
1965
1964.3
1963.2
1962.5
1961.5
1960.7
1961.4
1960.8
1961.4
1959.2
1957.8
1957.4
1957.7
1957.5
1956.1
1955.6
1956
1955.7
1954.3
1955.5
1954.5
1953.7
1954.4
1953.8
1952.7
1953.7
1952.9
1951.9
1952.8
1950.4
1950.8
1952.1
1952.6
1952.1
1950.9
1950.3
1950.8
1950.4
1949.2
1950.3
1950.9
1948.7
1949
1948.8
1949
1948.8
1948.9
1948.9
1948.9
1948.9
1947.2
1948.7
1949
1948.7
1947.4
1948.6
1949.2
1948.6
1947.5
1948.5
1947.6
1946.7
1947.6
1948.4
1949.3
1948.5
1947.6
1948.4
1949.4
1948.5
1947.6
1948.3
1949.4
1946.8
1947.4
1948.5
1949.2
1948.6
1947.5
1948.5
1949.3
1948.6
1947.5
1946.8
1947.4
1948.5
1946
1946.5
1947.7
1946.7
1946
1944.9
1945.9
1946.7
1944.4
1943.1
1945.8
1943.5
1943.9
1943.6
1943.8
1942
1941.9
1943.7
1943.7
1943.7
1942
1943.5
1943.8
1943.6
1943.8
1943.7
1943.7
1943.7
1943.7
1943.8
1943.6
1945.4
1943.8
1943.6
1943.8
1943.6
1943.7
1943.7
1945.3
1943.9
1943.5
1943.9
1943.5
1943.9
1941.9
1942.1
1941.9
1942.1
1941.9
1942.1
1941.9
1942.1
1940.3
1941.8
1940.5
1940
1940.5
1940.1
1940.5
1940.1
1940.4
1940.1
1940.4
1940.1
1938.8
1939.9
1940.6
1938.4
1938.7
1938.4
1938.7
1938.4
1938.7
1940.1
1938.9
1939.9
1939
1939.7
1940.8
1939.8
1940.7
1939.9
1940.6
1938.3
1938.7
1940
1940.5
1938.4
1938.6
1940.1
1938.8
1939.9
1939
1938.1
1938.9
1938.2
1938.9
1938.3
1938.8
1938.3
1937.1
1936.6
1937.1
1938.2
1937.2
1936.5
1937.1
1938.2
1937.3
1936.4
1937.2
1938.1
1935.8
1936.2
1937.4
1936.3
1935.7
1936.2
1935.8
1936.1
1937.5
1936.2
1937.4
1934.8
1935.4
1934.9
1935.3
1936.6
1935.5
1936.4
1935.6
1934.7
1935.5
1934.9
1935.4
1935
1935.3
1935
1935.2
1935.1
1935.1
1935.2
1935.1
1935.2
1933.4
1935
1933.6
1934.9
1935.4
1935
1935.3
1933.4
1935
1933.7
1934.7
1935.5
1933.2
1933.7
1934.8
1932.3
1932.7
1934.1
1932.8
1935.6
1933.1
1933.7
1933.1
1935.3
1933.4
1935
1935.2
1935
1935.2
1936.6
1935.4
1936.4
1937.2
1936.5
1938.8
1936.7
1936.9
1936.8
1936.9
1938.4
1937.1
1936.6
1938.7
1936.8
1936.9
1936.8
1935.3
1935
1933.7
1933.2
1932.1
1933
1932.3
1931.2
1930.6
1929.5
1930.5
1931.1
1929.1
1929.2
1929.2
1927.5
1929.1
1927.6
1927.4
1926
1927.3
1926.1
1925.6
1926
1927.2
1926.1
1927.1
1926.2
1927
1926.3
1925.3
1926.2
1927
1923.1
1924.9
1925
1924.9
1925
1923.3
1924.9
1923.4
1923.1
1923.4
1924.8
1923.5
1924.6
1923.7
1924.5
1923.8
1924.4
1925.5
1924.5
1925.3
1923
1925
1923.3
1923.1
1923.4
1921.5
1923.2
1923.3
1921.7
1923
1925.1
1923.2
1923.3
1923.2
1924.9
1923.4
1923.2
1923.3
1923.2
1924.9
1923.5
1923
1923.5
1923
1925
1923.3
1923.3
1923.2
1921.7
1923
1923.5
1923
1923.5
1921.5
1923.2
1923.3
1921.7
1921.5
1923.2
1921.7
1923
1921.9
1921.2
1921.9
1921.3
1921.8
1921.3
1921.8
1921.4
1920.2
1919.6
1920.2
1921.2
1920.3
1919.5
1920.3
1919.5
1920.2
1919.6
1918.6
1919.4
1920.3
1921.1
1920.5
1920.9
1922.2
1919.5
1923.4
1924.7
1925.2
1926.3
1928.5
1929.8
1931.8
1933.2
1935.2
1936.7
1938.6
1941.7
1943.8
1945.2
1945.6
1946.9
1950.6
1953.9
1955.9
1959
1961.2
1961
1959.5
1960.8
1961.3
1964.1
1965
1965.8
1970.1
1971.3
1975.2
1978.5
1982.3
1984.1
1984.2
1984.1
1984.1
1985.8
1982.7
1982
1982.6
1982.1
1982.5
1983.8
1984.4
1985.6
1986.2
1987.3
1988.1
1989.1
1989.9
1989.2
1989.8
1987.6
1987.8
1989.3
1991.4
1989.6
1991.1
1993.3
1994.7
1995.2
1996.4
1997.1
1999.8
2001
1999.9
2002.6
2003.6
2004.5
2005.3
2004.7
2006.9
2006.8
2006.7
2008.7
2006.9
2010.2
2009
2011.8
2012.8
2013.7
2014.6
2017.3
2018.4
2022.7
2024.2
2026.3
2026.3
2028
2030
2030
2030.1
2030
2030.1
2028.2
2028.1
2026.4
2026.2
2022.9
2024
2024.8
2025.8
2024.9
2024
2024.8
2022.3
2024.5
2024.4
2024.4
2024.4
2026.1
2028.2
2028.1
2028.3
2026.3
2028
2028.2
2028.1
2024.7
2025.9
2026.6
2026
2026.5
2027.8
2028.5
2029.6
2028.6
2029.5
2030.5
2029.6
2028.7
2027.7
2028.5
2029.6
2028.7
2027.7
2026.8
2027.5
2028.7
2027.7
2030.3
2029.8
2030.2
2028.1
2028.2
2029.9
2028.4
2026.2
2028
2026.5
2026
2028.3
2029.8
2030.3
2028
2028.3
2029.7
2030.3
2029.8
2030.3
2029.8
2030.3
2029.8
2033.8
2033.8
2033.8
2033.8
2033.8
2037.3
2036
2035.3
2037.8
2037.4
2039.5
2039.4
2039.5
2041.2
2043.2
2045.1
2045.3
2045.1
2048.8
2047.4
2046.8
2047.4
2046.8
2050.9
2054.5
2055
2056.3
2055.2
2057.9
2059.3
2059.8
2059.5
2057.8
2062.9
2062
2062.9
2065.7
2065.1
2067.4
2067.3
2067.3
2072.9
2071.6
2072.8
2073.5
2074.8
2075.5
2076.7
2077.4
2080.5
2079.7
2080.4
2079.8
2082.2
2082
2080.3
2083.6
2084.4
2085.6
2086.4
2085.7
2088.1
2087.9
2086.2
2087.7
2088.2
2089.6
2088.4
2089.5
2092.3
2089.9
2090.1
2091.8
2092.1
2091.9
2092
2091.9
2093.8
2094.1
2091.9
2092
2091.9
2093.9
2094
2095.8
2097.9
2099.9
2101.9
2104
2105.9
2108.1
2108
2108.1
2108
2108.1
2106.1
2106
2106.1
2104.1
2102
2102
2100.1
2101.8
2098.5
2097.5
2096.5
2095.5
2094.5
2093.4
2092.6
2091.4
2088.8
2085.4
2086.5
2085.5
2088.3
2087.8
2093.8
2096
2094
2097.7
2098.2
2099.6
2100.3
2101.6
2104.3
2103.8
2104.2
2105.7
2106.3
2105.8
2106.2
2107.7
2110.2
2108.1
2108
2108.1
2108
2110
2106.4
2107.6
2108.4
2105.8
2106.2
2105.9
2108
2108.1
2109.9
2112.1
2110.2
2110
2106.4
2105.7
2104.4
2101.7
2100.3
2097.8
2094.4
2095.4
2094.6
2093.4
2094.5
2091.6
2092.3
2089.9
2091.9
2092
2091.9
2092.1
2091.9
2092.1
2091.9
2093.9
2092.1
2095.6
2094.5
2093.5
2094.4
2093.6
2092.4
2091.5
2090.5
2091.4
2090.7
2089.4
2088.7
2085.5
2084.6
2081.7
2082.4
2081.8
2078.6
2074
2070.7
2066.3
2062.8
2060.4
2055.3
2052.5
2047.8
2044.7
2040.3
2035.2
2030.8
2027.6
2023.5
2018.3
2014.1
2010.8
2008.6
2003.6
1999.4
1994.5
1992
1985.7
1979.4
1973.2
1965.3
1955.8
1944.6
1933.4
1924
1911.7
1900.5
1891.8
1884.1
1877.2
1869.7
1862.9
1858.4
1853.5
1847.4
1842.6
1839.5
1833.6
1828.6
1825.9
1823.9
1821.5
1817.9
1816.9
1814.9
1813.9
1810.5
1807.9
1805.9
1804.9
1801.5
1801.7
1797.4
1795.7
1793.1
1789.9
1787.2
1781.4
1778.3
1774.3
1772.3
1768.7
1765.2
1764.3
1762.4
1758.8
1754
1751.6
1749.7
1747.5
1740.3
1740.1
1737.8
1735.9
1735
1733.1
1733.5
1730.6
1729.3
1729.1
1729.3
1726.6
1726.4
1727.8
1727.9
1727.8
1727.9
1727.8
1727.9
1729.1
1729.4
1730.3
1730.8
1730.4
1730.8
1732.9
1731.2
1732.6
1732.7
1733.8
1735.6
1735.2
1735.6
1735.1
1738.2
1736.7
1738.1
1738.1
1740.7
1742.3
1743.6
1745
1747.7
1747.9
1749.1
1749.3
1751.7
1753.5
1753.3
1754.8
1756.2
1754.9
1756
1755.1
1758.5
1758.2
1757.1
1756.8
1758.3
1758.4
1755.7
1755.4
1756.9
1757
1755.5
1755.5
1755.5
1755.6
1754.1
1755.5
1755.5
1754.2
1754
1755.6
1754.1
1755.4
1754.3
1755.3
1755.7
1755.4
1755.6
1754.1
1755.4
1755.7
1754.1
1755.5
1755.5
1754.2
1755.3
1755.7
1756.6
1755.9
1755.1
1755.9
1755.1
1757.2
1755.4
1755.7
1755.4
1755.6
1755.4
1755.6
1756.7
1757.1
1755.4
1756.9
1756.9
1756.9
1756.9
1758.2
1758.4
1758.2
1757.1
1756.7
1758.4
1758.3
1758.4
1758.3
1759.7
1761.1
1758.6
1759.4
1760.1
1758.1
1758.5
1759.4
1758.7
1759.3
1757.5
1757.7
1759
1759.1
1759.1
1757.7
1760.3
1757.9
1758.7
1759.3
1760.1
1759.4
1760.1
1758.1
1761.1
1759.9
1759.6
1759.9
1759.6
1761.2
1761.1
1761.2
1759.8
1761
1761.3
1762.4
1762.7
1762.4
1762.7
1763.8
1761.5
1762.1
1763
1760.9
1764
1762.6
1762.5
1762.6
1761.2
1761.2
1762.5
1761.4
1760.9
1761.4
1762.3
1761.5
1762.1
1761.7
1760.6
1762.9
1760.9
1761.4
1760.9
1761.4
1761
1761.3
1761
1761.3
1759.7
1762.4
1761.4
1760.9
1762.7
1762.5
1762.7
1763.8
1764.2
1766.5
1767.2
1767.8
1768.6
1769.2
1770.1
1770.6
1771.5
1770.7
1771.5
1770.8
1772.7
1772.3
1771.4
1772.2
1772.8
1772.3
1771.4
1772.1
1774.2
1773.7
1772.8
1773.6
1774.3
1773.7
1774.2
1773.7
1772.8
1772.3
1774.1
1773.9
1774
1773.9
1774
1773.9
1774
1774
1772.6
1773.8
1774.1
1773.9
1774.1
1772.6
1775.2
1774.3
1773.6
1774.3
1775
1774.5
1773.5
1775.7
1773.7
1776.8
1775.5
1775.3
1775.5
1776.7
1775.6
1776.5
1777.1
1776.6
1777.1
1778
1777.2
1776.5
1775.8
1777.7
1778.8
1775.1
1778.3
1778.2
1778.3
1779.6
1779.8
1781
1782.7
1782.6
1784
1785.5
1785.5
1786.9
1787.1
1788.2
1787.2
1788.1
1788.7
1788.1
1788.7
1789.6
1790.2
1789.6
1791.5
1791.2
1791.4
1791.3
1790.1
1789.7
1790
1791.1
1790.2
1789.6
1788.7
1789.5
1790.2
1788.2
1788.6
1789.6
1790.1
1789.7
1788.7
1789.5
1790.2
1788.3
1789.9
1788.5
1789.7
1790.1
1788.3
1789.9
1791.2
1790.1
1788.3
1789.9
1789.9
1791.3
1790
1789.7
1791.4
1791.3
1791.3
1792.7
1794.3
1792.9
1792.7
1794.3
1794.3
1794.3
1794.2
1794.3
1794.2
1795.7
1795.8
1795.7
1795.8
1795.7
1795.8
1795.7
1795.8
1797.1
1796
1795.6
1797.3
1797.2
1795.9
1795.6
1797.2
1798.6
1797.4
1798.4
1797.6
1798.2
1799.1
1796.9
1797.5
1797
1798.8
1798.6
1798.8
1797.3
1798.6
1798.8
1798.6
1797.4
1798.4
1800.4
1798.6
1798.8
1798.6
1798.8
1800
1800.3
1800
1800.3
1800
1800.3
1800.1
1800.3
1800.1
1801.6
1801.7
1800.3
1800.1
1803
1801.9
1801.4
1801.9
1801.5
1803.2
1803.1
1803.2
1803.1
1803.2
1801.7
1803
1803.3
1804.4
1803.4
1804.2
1805
1805.7
1805.1
1804.1
1805
1804.2
1803.6
1804.1
1805.1
1804.2
1803.6
1802.7
1803.5
1801.4
1803.2
1801.7
1801.6
1803.1
1801.8
1801.5
1801.7
1802.9
1801.9
1801.4
1801.8
1801.5
1801.8
1801.5
1801.7
1801.6
1801.7
1801.6
1801.7
1803
1801.8
1801.5
1801.8
1801.5
1800.4
1801.4
1801.9
1801.4
1801.8
1801.5
1801.8
1802.9
1801.9
1801.4
1801.9
1801.5
1801.8
1802.9
1801.9
1802.8
1802.1
1804
1803.8
1803.9
1803.8
1803.9
1806.7
1805.6
1805.2
1805.5
1806.6
1807
1806.7
1805.5
1806.6
1807.1
1808
1807.2
1807.9
1808.7
1809.4
1808.8
1809.3
1808.9
1809.2
1809
1810.5
1810.6
1809.1
1810.5
1810.6
1810.5
1809.2
1809
1809.1
1809
1807.7
1808.9
1809.2
1809
1807.8
1807.4
1807.7
1808.9
1807.9
1808.7
1808
1808.6
1808.1
1808.5
1809.6
1807.2
1807.9
1807.3
1807.8
1808.8
1807.9
1807.3
1807.9
1807.4
1809.2
1809
1809.1
1809.1
1807.7
1808.9
1809.2
1809
1807.8
1807.4
1807.7
1808.9
1807.9
1808.7
1808
1807.2
1807.9
1808.7
1808
1808.6
1808.1
1808.5
1808.2
1808.4
1808.3
1808.3
1809.8
1807.1
1808
1807.2
1809.3
1808.9
1807.9
1807.4
1807.8
1807.4
1807.7
1807.5
1807.6
1808.9
1807.8
1808.8
1807.9
1808.7
1809.4
1808.8
1807.9
1810
1809.6
1807.2
1807.9
1808.7
1809.4
1808.8
1809.3
1810.2
1809.5
1808.7
1809.4
1810.2
1809.5
1810.1
1811
1808.8
1809.3
1810.3
1810.8
1810.4
1810.7
1811.9
1812.2
1810.5
1810.6
1810.6
1810.5
1812
1810.7
1810.5
1812
1812.1
1810.6
1810.5
1810.6
1812
1810.7
1811.8
1810.9
1811.7
1811
1811.6
1811.1
1811.5
1812.6
1811.6
1812.5
1811.7
1812.4
1811.8
1812.3
1811.8
1812.2
1811.9
1813.6
1812.2
1811.9
1812.2
1811.9
1810.8
1811.7
1813.8
1813.3
1812.4
1811.8
1812.4
1813.2
1813.9
1811.8
1813.7
1812
1813.5
1812.2
1811.9
1813.6
1812.1
1813.4
1813.7
1812
1813.5
1813.6
1812.1
1814.8
1813.9
1813.3
1813.8
1813.3
1813.8
1813.4
1813.7
1814.8
1815.3
1813.4
1815
1813.7
1814.8
1815.3
1814.8
1815.3
1814.9
1815.3
1814.9
1815.2
1816.3
1815.4
1814.7
1816.8
1814.9
1815.2
1815
1815.2
1816.4
1815.4
1816.2
1816.9
1816.2
1816.9
1816.3
1816.8
1816.3
1816.8
1816.4
1816.7
1817.8
1816.9
1816.2
1816.9
1817.7
1818.4
1817.8
1816.9
1817.6
1817.1
1817.5
1818.6
1816.2
1818.3
1817.9
1818.2
1817.9
1818.2
1819.4
1818.3
1817.8
1818.3
1819.3
1819.8
1818
1818.1
1819.4
1818.3
1819.3
1819.8
1819.4
1819.8
1819.4
1819.7
1819.5
1819.6
1819.5
1819.6
1819.6
1821
1821.2
1819.5
1819.6
1819.5
1821.1
1819.7
1820.9
1819.8
1820.8
1820
1819.2
1821.3
1820.9
1819.8
1820.8
1821.4
1820.8
1821.3
1820.9
1821.2
1821
1821.2
1821
1822.6
1822.7
1821.1
1822.5
1822.7
1822.5
1821.3
1822.4
1822.8
1823.8
1823
1822.3
1822.9
1822.3
1822.8
1822.4
1824.2
1824.1
1822.7
1822.5
1822.7
1823.9
1822.9
1822.4
1822.8
1823.8
1823
1822.3
1822.9
1822.3
1822.8
1822.4
1821.4
1820.8
1822.7
1822.5
1822.7
1824
1821.4
1822.2
1823
1822.3
1822.9
1822.3
1822.8
1822.4
1821.4
1822.2
1822.9
1820.9
1821.2
1821
1821.2
1821
1821.1
1821
1821.1
1821.1
1821.1
1821.1
1821.1
1821.1
1821
1821.1
1821
1819.7
1819.4
1819.7
1819.4
1821.1
1819.6
1819.5
1819.6
1819.5
1819.6
1819.6
1819.6
1819.6
1819.6
1819.6
1819.6
1819.6
1819.6
1819.6
1819.6
1819.6
1818.2
1818
1819.5
1819.6
1818.1
1818
1819.5
1818.2
1819.3
1819.8
1819.4
1819.8
1818
1819.5
1819.6
1819.5
1819.6
1819.5
1819.6
1819.5
1819.6
1819.5
1819.6
1819.5
1819.6
1819.5
1819.6
1819.5
1819.6
1819.5
1819.6
1819.5
1819.6
1819.5
1821
1821.2
1819.6
1819.5
1819.6
1819.5
1819.6
1819.5
1819.6
1819.5
1819.6
1819.5
1818.2
1819.3
1819.8
1819.4
1819.8
1819.4
1819.7
1819.4
1819.7
1819.4
1819.7
1819.5
1819.7
1819.5
1819.7
1819.5
1819.6
1819.5
1818.2
1819.3
1819.8
1819.4
1819.8
1819.4
1819.7
1819.4
1819.7
1819.5
1819.7
1818.1
1819.4
1819.7
1819.4
1819.7
1818
1819.5
1819.6
1819.5
1819.6
1819.5
1819.6
1819.6
1819.6
1821
1818.4
1819.2
1819.9
1817.9
1818.3
1819.3
1819.8
1819.4
1819.8
1819.4
1819.7
1819.4
1819.7
1819.5
1819.7
1819.5
1821
1821.1
1819.6
1819.5
1819.6
1819.6
1819.6
1819.6
1819.6
1819.6
1819.5
1819.6
1819.5
1819.6
1819.5
1821
1819.7
1818
1819.5
1819.7
1819.5
1819.7
1819.5
1819.7
1820.9
1819.9
1819.3
1819.8
1820.8
1820
1819.2
1821.3
1819.4
1821.1
1821.1
1821.1
1821.1
1821.1
1819.7
1820.9
1821.3
1819.5
1821.1
1821.1
1821.1
1821.1
1821.1
1821.1
1822.5
1821.3
1820.9
1822.6
1822.6
1822.6
1822.6
1822.6
1822.6
1824
1821.4
1822.2
1824.4
1822.4
1822.7
1822.5
1822.7
1823.9
1821.5
1822.1
1823.1
1823.6
1823.2
1822
1824.5
1823.7
1823
1823.6
1823.2
1822.1
1823.1
1822.2
1823
1822.2
1822.9
1822.3
1822.8
1823.8
1823
1823.7
1823.1
1822.1
1823
1822.2
1824.3
1822.5
1824
1824.2
1824
1824.2
1822.6
1822.6
1824
1824.3
1822.5
1824.1
1824.1
1824.1
1824.1
1822.7
1822.4
1824.2
1824.1
1824.2
1824
1822.8
1823.8
1824.4
1823.8
1824.4
1823.9
1824.4
1823.9
1824.3
1823.9
1825.7
1824.1
1824.1
1824.1
1824.1
1825.5
1824.3
1825.3
1825.9
1825.4
1825.9
1825.4
1824.4
1825.2
1826
1825.3
1824.5
1825.2
1826.1
1825.2
1824.6
1825.1
1824.7
1825
1824.8
1824.9
1826.3
1825.1
1826.1
1825.2
1826
1825.3
1825.9
1825.4
1825.8
1826.9
1826
1826.8
1827.5
1826.9
1826
1826.8
1827.5
1826.9
1826
1826.8
1826.1
1826.7
1827.6
1826.8
1827.4
1826.9
1825.9
1826.8
1827.4
1826.9
1827.3
1828.4
1828.9
1827.1
1825.7
1827
1827.3
1828.5
1827.4
1828.4
1828.9
1828.5
1827.4
1826.9
1828.8
1828.6
1827.3
1828.5
1828.8
1828.6
1827.3
1827
1828.7
1828.7
1828.6
1828.7
1828.6
1828.8
1828.6
1828.8
1827.1
1830
1828.9
1829.9
1829.1
1828.3
1829
1829.8
1830.6
1829.9
1829.1
1829.8
1829.2
1828.2
1829.1
1828.3
1830.4
1830
1829
1828.4
1828.9
1829.9
1829
1828.3
1829
1827
1827.3
1828.5
1828.9
1827.1
1827.2
1828.5
1828.8
1827.2
1827.1
1827.2
1827.1
1828.6
1827.3
1828.4
1828.9
1828.5
1827.4
1826.9
1828.8
1828.6
1827.4
1827
1828.7
1828.6
1827.3
1827
1828.7
1828.7
1827.3
1827.1
1828.6
1828.7
1827.2
1828.5
1828.8
1828.5
1827.4
1826.9
1828.8
1828.6
1827.3
1828.4
1828.9
1828.5
1827.4
1826.9
1827.4
1828.4
1827.5
1826.8
1828.9
1828.5
1827.4
1826.9
1827.4
1828.4
1827.5
1826.8
1827.5
1826.9
1827.4
1826.9
1827.3
1827
1825.9
1826.8
1827.4
1828.3
1827.6
1826.8
1827.5
1826.9
1827.4
1826.9
1825.9
1826.8
1827.5
1826.9
1827.4
1826.9
1827.3
1827
1827.3
1827.1
1827.2
1828.5
1828.8
1828.6
1827.3
1827
1828.7
1828.7
1827.2
1828.5
1828.8
1828.6
1827.3
1828.4
1827.5
1828.3
1829
1828.4
1827.5
1828.2
1829.1
1828.3
1829
1829.8
1829.1
1828.3
1830.4
1830
1828.9
1828.5
1828.9
1829.9
1829
1828.4
1828.9
1828.5
1828.8
1830
1829
1829.8
1829.1
1829.7
1829.2
1829.6
1829.3
1829.5
1830.8
1829.7
1829.3
1829.6
1830.8
1829.7
1830.6
1831.3
1832.1
1831.4
1830.6
1829.8
1830.5
1831.4
1830.6
1831.3
1830.7
1829.8
1832
1831.5
1831.9
1831.6
1831.8
1831.7
1831.8
1833.1
1831.9
1831.6
1831.8
1831.6
1830.4
1831.5
1831.9
1831.6
1831.9
1831.6
1831.8
1831.7
1831.8
1833.2
1833.3
1833.2
1833.3
1833.2
1833.3
1833.3
1833.2
1833.3
1833.2
1834.7
1833.4
1833.1
1833.4
1834.6
1833.5
1834.4
1835.1
1835.9
1835.2
1834.4
1835.2
1834.5
1835.1
1836
1836.7
1836
1835.2
1834.5
1836.5
1834.7
1834.8
1834.8
1836.2
1836.4
1836.2
1836.4
1836.2
1836.4
1836.2
1836.4
1836.2
1836.4
1836.2
1836.4
1836.2
1836.4
1836.2
1836.4
1836.2
1837.8
1836.5
1836.2
1837.9
1837.9
1836.4
1836.2
1836.4
1836.2
1836.4
1836.3
1836.4
1836.3
1836.4
1836.3
1835
1836.1
1836.6
1836.1
1838
1837.8
1836.5
1836.2
1836.5
1837.6
1836.7
1836
1838.1
1836.3
1836.4
1836.3
1837.8
1837.9
1836.4
1837.7
1838
1837.8
1836.5
1837.6
1838.1
1837.6
1836.7
1837.5
1836.8
1837.3
1838.4
1837.4
1838.3
1836.1
1838
1837.8
1837.9
1837.8
1836.5
1837.6
1838.1
1839.1
1838.2
1837.5
1838.1
1837.6
1838.1
1837.7
1838
1839.2
1838.2
1837.6
1838.1
1839.1
1838.2
1839
1839.8
1837.6
1839.5
1839.3
1839.5
1839.4
1838
1839.2
1838.1
1839.1
1839.7
1839.2
1841.1
1839.4
1839.4
1839.5
1839.3
1839.5
1839.3
1839.5
1840.7
1841.2
1839.3
1839.5
1840.7
1839.7
1839.1
1841.1
1840.8
1841.1
1839.3
1840.9
1841
1840.9
1841
1840.9
1841
1839.5
1840.7
1841.2
1842.2
1841.3
1840.6
1841.3
1840.6
1842.7
1839.5
1840.8
1842.5
1842.4
1841.1
1840.8
1841.1
1842.2
1841.3
1842.1
1841.5
1841.9
1843
1842
1841.5
1841.9
1841.7
1841.7
1843.2
1840.4
1842.9
1842.1
1842.8
1842.2
1841.3
1842.1
1842.9
1842.1
1841.4
1840.6
1842.7
1842.3
1841.2
1842.1
1842.8
1842.2
1841.3
1842.1
1842.9
1842.2
1841.3
1840.6
1842.7
1842.3
1841.2
1842.2
1841.3
1842.1
1842.9
1842.2
1842.8
1842.2
1842.7
1842.3
1842.6
1843.8
1842.8
1842.3
1842.7
1843.8
1842.8
1842.2
1842.7
1842.3
1842.7
1843.8
1844.2
1843.9
1842.7
1842.3
1842.7
1843.8
1842.8
1843.7
1842.9
1843.6
1844.5
1843.7
1842.9
1842.1
1844.3
1843.9
1844.2
1843.9
1842.7
1843.8
1844.2
1843.9
1844.2
1843.9
1844.1
1844
1842.6
1843.8
1844.2
1843.9
1844.2
1844
1844.1
1844
1844.1
1844.1
1842.6
1843.9
1844.2
1843.9
1844.1
1844
1844.1
1844
1844.1
1844
1844
1844.1
1844
1844.1
1844
1844.1
1844
1844.1
1844
1844.1
1844
1844.1
1844
1844.1
1844
1842.7
1843.8
1844.3
1843.8
1844.3
1843.9
1844.2
1843.9
1844.2
1843.9
1845.6
1844.2
1845.4
1844.4
1843.7
1844.3
1843.8
1844.3
1845.2
1844.5
1845.1
1844.6
1844.9
1846.2
1843.6
1845.9
1845.3
1845.9
1845.3
1844.4
1845.2
1846
1845.2
1844.5
1845.1
1846.1
1845.2
1846
1845.3
1845.9
1845.3
1845.8
1845.4
1847.2
1848.5
1847.4
1846.9
1847.3
1847
1847.3
1847
1848.7
1848.7
1847.2
1848.6
1848.8
1848.6
1848.8
1848.7
1848.7
1848.7
1848.7
1848.7
1848.7
1848.7
1848.7
1848.8
1850.1
1849
1848.4
1850.4
1850.1
1850.4
1850.1
1850.4
1850.1
1850.4
1850.1
1850.4
1850.1
1850.4
1850.1
1850.4
1850.1
1851.8
1850.4
1851.6
1852
1850.2
1851.8
1851.9
1851.8
1851.9
1851.8
1851.9
1851.8
1853.3
1852
1851.7
1853.4
1853.4
1853.4
1853.4
1854.9
1855
1853.4
1853.4
1853.4
1853.4
1853.4
1853.4
1853.4
1854.8
1853.6
1854.6
1853.8
1854.5
1854
1854.3
1854.1
1854.2
1855.7
1854.3
1854.1
1852.7
1855.4
1854.5
1855.4
1854.6
1855.3
1854.7
1855.2
1854.7
1856.6
1855
1856.4
1856.7
1854.9
1856.5
1856.5
1856.5
1856.5
1856.6
1856.5
1856.6
1856.5
1856.6
1857.9
1856.8
1857.7
1857
1856.1
1857
1857.6
1858.6
1857.6
1858.5
1857.7
1858.5
1857.8
1858.4
1859.3
1858.6
1857.7
1858.5
1857.7
1858.4
1857.8
1858.4
1857.9
1858.3
1857.9
1858.3
1859.4
1858.4
1857.8
1858.4
1859.3
1858.5
1857.7
1858.4
1859.3
1858.6
1857.7
1859.9
1858
1859.6
1859.7
1859.6
1859.8
1858.1
1859.6
1859.8
1859.6
1859.7
1859.7
1859.7
1861.2
1859.8
1861
1860
1860.9
1860.1
1859.3
1861.5
1861
1861.4
1861.1
1861.4
1862.6
1861.5
1862.5
1863.1
1861.1
1861.4
1862.6
1863
1862.7
1862.9
1864.2
1863.1
1862.6
1863
1862.7
1864.4
1864.4
1862.9
1862.8
1864.4
1864.5
1862.9
1862.8
1864.3
1864.5
1862.8
1864.3
1863
1864.2
1864.6
1862.7
1864.4
1864.5
1864.4
1864.5
1864.4
1866
1864.6
1864.3
1864.5
1864.3
1864.5
1864.3
1864.5
1864.4
1863
1862.7
1863
1864.2
1863.1
1862.6
1863.1
1862.6
1861.6
1861
1861.5
1861
1860
1859.4
1859.9
1858
1858.2
1858
1858.2
1858
1855.2
1856.2
1856.9
1856.2
1856.8
1856.3
1856.8
1856.3
1855.2
1854.7
1856.7
1855
1854.9
1855
1856.4
1855.2
1854.7
1855.2
1854.7
1855.2
1854.8
1853.7
1854.6
1855.3
1853.2
1855.1
1854.9
1855.1
1853.4
1854.8
1855.1
1854.9
1853.6
1853.2
1855
1853.4
1853.4
1854.9
1853.6
1853.2
1853.5
1854.7
1855.2
1853.3
1853.5
1854.8
1853.7
1854.6
1853.8
1853
1853.8
1854.5
1853.9
1852.9
1855.3
1854.7
1853.8
1853
1853.7
1854.6
1853.8
1854.4
1855.4
1854.5
1853.9
1854.4
1855.4
1854.5
1855.3
1853.2
1855
1856.4
1855.2
1854.8
1855.1
1854.8
1855.1
1854.9
1855
1854.9
1855
1855
1854.9
1856.5
1855.1
1854.8
1855.1
1854.9
1855
1854.9
1855
1855
1854.9
1855
1854.9
1855
1854.9
1855
1854.9
1856.5
1853.6
1854.7
1855.2
1854.7
1855.2
1854.8
1855.1
1854.8
1855.1
1854.9
1855
1856.4
1853.7
1853.1
1853.7
1854.6
1853.8
1853
1853.7
1853.1
1853.7
1853.1
1853.6
1853.2
1852.1
1851.6
1853.5
1853.3
1852
1851.7
1853.4
1853.4
1851.9
1851.8
1851.9
1853.2
1850.6
1852.9
1852.4
1851.3
1852.3
1851.4
1852.2
1851.5
1850.7
1852.8
1852.5
1851.2
1852.4
1851.4
1852.2
1851.5
1850.7
1851.3
1852.3
1851.4
1850.7
1851.3
1852.3
1852.9
1850.9
1851.1
1852.5
1851.3
1850.9
1851.2
1850.9
1851.1
1851
1851.1
1852.5
1851.2
1852.4
1851.4
1852.2
1851.5
1850.6
1851.4
1853.6
1851.7
1851.9
1851.8
1851.8
1851.9
1850.3
1851.7
1851.9
1851.8
1851.8
1851.9
1851.8
1853.4
1851.9
1851.7
1853.3
1853.5
1851.8
1851.8
1851.8
1851.9
1851.8
1851.9
1851.7
1851.9
1851.7
1853.4
1851.9
1853.2
1852.1
1853.1
1852.2
1852.9
1852.4
1852.8
1853.9
1852.9
1852.4
1852.8
1853.9
1852.9
1852.4
1851.3
1853.7
1853.1
1853.6
1851.7
1853.4
1853.4
1851.9
1851.8
1853.3
1853.5
1851.8
1853.3
1853.5
1853.3
1852
1853.2
1853.6
1854.7
1852.3
1852.8
1853.9
1852.9
1852.4
1852.8
1852.5
1852.7
1852.6
1852.6
1852.6
1852.5
1854.2
1852.7
1854
1852.8
1853.9
1853
1853.8
1853.1
1853.7
1853.2
1853.6
1853.2
1853.5
1854.8
1853.7
1854.6
1853.8
1854.5
1855.3
1853.2
1853.6
1853.2
1853.5
1854.8
1853.6
1854.6
1853.8
1853.1
1853.7
1853.2
1853.6
1853.2
1853.5
1853.3
1853.5
1853.4
1853.4
1854.9
1855
1853.5
1851.9
1853.3
1853.5
1853.3
1853.4
1853.4
1853.4
1853.4
1851.9
1853.2
1853.5
1854.7
1852.2
1852.9
1853.8
1851.6
1850.6
1851.4
1852.2
1851.5
1850.7
1849.9
1850.6
1850
1850.5
1848.6
1850.2
1850.3
1848.8
1850.1
1850.4
1848.7
1848.7
1848.8
1850.1
1849
1848.4
1849
1848.5
1850.4
1847.2
1848.5
1848.9
1848.6
1848.8
1848.6
1848.8
1848.6
1848.8
1848.6
1848.8
1848.7
1848.8
1848.7
1848.7
1848.7
1848.7
1848.7
1848.7
1848.7
1848.7
1848.7
1848.7
1848.7
1850.2
1850.4
1848.7
1850.1
1850.4
1850.2
1848.9
1850
1850.6
1850
1849.1
1849.8
1850.7
1849.9
1850.6
1849.9
1850.6
1850
1850.5
1851.5
1850.7
1851.3
1850.8
1851.2
1852.4
1851.3
1852.3
1851.4
1852.2
1851.5
1852.1
1853
1852.3
1851.4
1852.2
1851.5
1853.5
1853.3
1852
1853.1
1852.2
1853
1853.8
1851.6
1853.5
1853.4
1853.4
1853.4
1853.4
1853.4
1853.3
1853.5
1851.8
1853.3
1853.5
1853.3
1853.4
1853.4
1851.9
1853.2
1852.1
1853.1
1852.2
1852.9
1853.8
1853
1853.7
1853.1
1853.6
1853.2
1855
1853.5
1853.3
1853.5
1854.7
1855.2
1853.3
1853.5
1853.3
1855
1854.9
1855
1854.9
1855
1854.9
1853.6
1854.7
1855.2
1854.7
1856.7
1856.4
1855.2
1854.7
1855.2
1854.8
1855.1
1854.8
1855.1
1854.8
1856.6
1855
1854.9
1855
1856.3
1855.2
1856.1
1856.9
1856.2
1856.8
1856.2
1856.8
1857.7
1857
1857.6
1857.1
1857.4
1857.3
1855.9
1858.6
1857.6
1858.5
1857.7
1858.5
1857.8
1858.4
1859.3
1861.5
1859.6
1859.7
1859.6
1859.7
1859.7
1859.7
1861.1
1859.9
1859.5
1859.8
1859.5
1861.3
1859.8
1859.6
1861.3
1861.2
1861.3
1859.7
1861.1
1861.4
1859.7
1861.1
1861.4
1861.1
1861.4
1861.1
1861.4
1861.1
1861.4
1861.1
1861.4
1862.6
1863
1861.2
1861.3
1862.6
1864.5
1862.9
1862.8
1864.3
1863
1864.1
1864.7
1864.2
1864.7
1864.2
1866.1
1864.4
1865.9
1864.7
1864.2
1866.1
1867.4
1866.3
1867.2
1866.5
1867
1866.6
1866.9
1866.8
1866.8
1868.3
1866.9
1868.2
1868.5
1869.8
1867.1
1869.5
1868.9
1867.9
1867.3
1869.3
1869.1
1869.3
1867.6
1869
1869.3
1869
1867.9
1868.8
1869.6
1868.8
1868
1867.2
1868
1868.7
1868.2
1867
1868.1
1867.1
1866.6
1865.5
1866.5
1867
1866.6
1864
1866.3
1865.7
1864.8
1864.1
1866.2
1864.4
1863
1864.2
1864.6
1864.2
1863.1
1864.1
1864.7
1864.1
1863.2
1862.5
1863.1
1864.1
1863.2
1862.5
1863.2
1862.6
1861.6
1862.4
1861.7
1862.3
1861.8
1860.7
1861.7
1862.3
1861.8
1860.8
1861.7
1860.9
1861.6
1861
1861.5
1861.1
1861.4
1861.2
1861.3
1861.2
1859.8
1859.6
1859.7
1861.1
1858.4
1860.8
1860.2
1859.2
1858.6
1857.7
1858.5
1859.2
1858.6
1857.7
1858.5
1857.8
1856.9
1857.7
1857
1857.6
1857.1
1857.5
1858.6
1856.2
1856.8
1856.3
1856.7
1856.4
1856.6
1856.5
1856.6
1858
1856.7
1856.4
1858.1
1856.7
1856.4
1856.7
1856.4
1856.7
1856.3
1856.7
1856.3
1856.7
1856.3
1856.7
1854.9
1856.5
1855.1
1856.3
1855.3
1856.2
1855.4
1856
1857
1854.6
1855.2
1856.2
1856.9
1856.2
1855.3
1854.6
1856.7
1856.4
1855.2
1856.2
1856.8
1856.2
1856.8
1856.3
1856.7
1856.4
1856.7
1856.4
1858.1
1858.1
1856.6
1856.4
1856.6
1857.9
1856.8
1856.3
1858.2
1858
1856.7
1856.4
1858.1
1856.6
1856.5
1856.6
1856.4
1858.1
1856.7
1856.4
1856.6
1856.4
1856.6
1857.9
1858.3
1856.5
1856.6
1856.5
1856.5
1858
1856.7
1856.3
1858.2
1856.6
1856.5
1856.6
1857.9
1858.3
1855
1856.4
1855.2
1856.2
1856.9
1856.2
1856.8
1856.3
1855.3
1856.1
1856.9
1856.2
1855.4
1854.6
1855.3
1854.6
1855.2
1854.7
1853.7
1856
1855.5
1854.4
1855.4
1854.5
1855.3
1854.6
1855.3
1854.7
1855.2
1854.8
1855.1
1854.8
1855.1
1854.9
1855
1854.9
1853.5
1854.8
1855.1
1853.4
1854.9
1855.1
1856.3
1856.8
1854.8
1856.5
1856.5
1856.6
1855
1856.4
1856.7
1855
1854.9
1855
1854.9
1855
1854.9
1855
1856.4
