246.32
246.41
246.59
246.52
246.58
246.87
247.04
247.06
247.13
247.33
247.5
247.78
247.97
248.5
248.99
249.25
249.46
249.71
250.11
250.12
250.37
250.59
251.02
251.53
251.88
252.38
252.75
253.14
253.43
253.54
253.71
253.74
253.81
254.02
254.02
254.2
254.32
254.49
254.61
254.68
254.72
254.77
254.91
254.88
254.91
255.06
255.11
255.06
255.11
254.98
254.91
254.88
254.73
254.76
254.65
254.47
254.54
254.47
254.53
254.57
254.54
254.47
254.53
254.66
254.83
254.77
255
254.8
254.7
254.61
254.23
253.93
253.65
253.53
253.27
252.69
252.3
251.93
251.62
251.36
250.88
250.59
249.87
249.18
248.74
248.35
248.08
247.71
247.17
246.87
246.53
245.89
245.34
244.81
244.18
243.72
243.12
242.65
242.23
241.77
241.44
241.08
240.82
240.32
240.02
239.72
239.17
238.76
238.39
238.32
238.14
238.06
237.97
237.89
237.88
237.81
237.63
237.63
237.55
237.54
237.47
237.45
237.39
237.21
237.21
237.21
237.21
237.29
237.22
237.12
237.05
236.87
236.63
236.53
236.31
236.03
235.65
235.12
234.81
234.38
233.98
233.72
233.41
233.22
232.93
232.72
232.6
232.4
232.27
232.08
232.02
231.84
231.7
231.67
231.47
231.27
231
230.78
230.9
230.72
230.72
231.54
232.64
233.58
234.06
234.64
235.15
235.4
235.73
235.83
235.98
236.08
236.23
236.25
236.31
236.42
236.48
236.42
236.55
236.6
236.64
236.76
236.97
237.02
237.05
237.19
237.23
237.27
237.23
237.27
237.32
237.51
237.5
237.51
237.66
237.6
237.65
237.61
237.73
237.79
237.73
237.78
237.9
237.88
237.89
237.8
237.95
238.07
237.96
237.98
237.72
237.63
237.55
237.54
237.63
237.48
237.52
237.49
237.43
237.49
237.51
237.5
237.51
237.66
237.6
237.58
237.51
237.58
237.6
237.58
237.51
237.74
237.7
237.65
237.61
237.73
237.63
237.71
237.8
237.8
237.8
237.72
237.79
237.97
237.97
237.89
237.88
237.97
237.98
237.96
238.06
238.05
238.14
238.06
238.13
238.15
238.13
238.15
238.21
238.24
238.22
238.23
238.22
238.31
238.31
238.31
238.39
238.32
238.47
238.42
238.46
238.42
238.45
238.59
238.55
238.66
238.64
238.58
238.64
238.74
238.81
238.83
238.82
238.91
238.91
238.83
238.9
238.91
239.06
239.01
239.06
239.1
239.06
239.1
239.15
239.18
239.15
239.1
239.22
239.2
239.14
239.11
239.13
239.27
239.23
239.19
239.15
239.34
239.25
239.25
239.26
239.17
239.33
239.19
239.23
239.19
239.3
239.29
239.22
239.36
239.31
239.28
239.23
239.43
239.42
239.35
239.41
239.44
239.49
239.44
239.49
239.53
239.57
239.54
239.65
239.55
239.63
239.57
239.62
239.74
239.63
239.65
239.63
239.73
239.72
239.73
239.72
239.73
239.72
239.81
239.73
239.88
239.91
239.81
239.82
239.89
239.91
239.97
239.83
239.95
240.09
239.97
240
240.05
240.09
240.05
240.08
240.14
240.09
240.05
240.09
240.22
240.19
240.21
240.19
240.12
240.27
240.22
240.26
240.23
240.34
240.32
240.34
240.41
240.35
240.4
240.35
240.47
240.45
240.38
240.45
240.55
240.46
240.46
240.55
240.63
240.64
240.46
240.62
240.56
240.69
240.66
240.61
240.74
240.71
240.73
240.79
240.82
240.63
240.71
240.81
240.8
240.89
240.73
240.79
240.82
240.79
240.66
240.77
240.76
240.77
240.68
240.67
240.76
240.84
240.78
240.83
240.79
240.65
240.86
240.76
240.93
240.86
240.84
240.78
240.75
240.85
240.85
240.85
240.93
240.86
240.84
240.86
240.93
240.78
240.83
240.87
240.91
240.88
240.83
240.95
241
240.96
240.92
240.96
241.08
241.06
241
241.05
241.16
241.15
241.08
241.14
241.09
241.22
241.18
241.21
241.19
241.21
241.27
241.3
241.36
241.22
241.26
241.31
241.43
241.41
241.34
241.4
241.43
241.41
241.34
241.48
241.52
241.49
241.44
241.48
241.44
241.56
241.54
241.64
241.64
241.63
241.72
241.64
241.79
241.75
241.71
241.66
241.7
241.75
241.79
241.83
241.87
241.84
241.79
241.83
241.87
241.92
241.88
241.92
241.89
241.99
241.98
241.91
242.06
242.01
241.97
242
242.05
242.09
242.06
242.01
242.13
242.11
242.13
242.19
242.22
242.2
242.13
242.19
242.3
242.21
242.21
242.21
242.28
242.39
242.3
242.3
242.29
242.38
242.3
242.29
242.38
242.47
242.39
242.38
242.39
242.46
242.48
242.46
242.48
242.47
242.48
242.55
242.57
242.55
242.48
242.54
242.66
242.64
242.57
242.63
242.66
242.63
242.58
242.62
242.67
242.71
242.68
242.62
242.67
242.63
242.67
242.71
242.76
242.72
242.75
242.72
242.75
242.81
242.76
242.8
242.85
242.8
242.84
242.81
242.92
242.91
242.84
242.9
242.93
242.9
242.92
242.9
243
243
242.92
242.99
243.01
243.08
243.02
242.99
243.02
243.15
243.12
243.06
243.11
243.15
243.04
243.13
243.22
243.14
243.13
243.14
243.22
243.23
243.22
243.22
243.22
243.22
243.23
243.14
243.22
243.15
243.21
243.24
243.21
243.23
243.22
243.23
243.3
243.32
243.3
243.24
243.3
243.41
243.31
243.4
243.32
243.38
243.42
243.38
243.5
243.32
243.39
243.33
243.46
243.35
243.36
243.44
243.53
243.46
243.43
243.46
243.43
243.54
243.44
243.54
243.45
243.53
243.54
243.53
243.62
243.47
243.51
243.64
243.6
243.73
243.53
243.62
243.71
243.63
243.61
243.72
243.71
243.72
243.62
243.71
243.72
243.71
243.63
243.7
243.81
243.88
243.73
243.77
243.91
243.79
243.81
243.88
243.9
243.88
243.74
243.86
243.92
243.94
243.93
243.85
243.92
243.86
243.92
243.95
243.93
244.02
243.94
243.92
244.03
244.02
244.03
243.93
244.11
243.95
244.01
244.04
244.18
244.06
244.08
244.15
244.09
244.14
244.09
244.13
244.1
244.13
244.19
244.22
244.28
244.14
244.17
244.23
244.26
244.23
244.26
244.32
244.35
244.33
244.26
244.32
244.35
244.41
244.36
244.4
244.37
244.4
244.45
244.32
244.52
244.52
244.43
244.51
244.61
244.44
244.5
244.54
244.5
244.62
244.51
244.61
244.6
244.61
244.6
244.7
244.61
244.69
244.71
244.69
244.62
244.76
244.72
244.76
244.81
244.68
244.8
244.78
244.79
244.86
244.8
244.86
244.98
244.87
245.05
245.07
245.13
245.16
245.13
245.16
245.13
245.16
245.13
245.16
245.22
245.25
245.14
245.32
245.33
245.41
245.34
245.31
245.42
245.5
245.43
245.48
245.53
245.66
245.55
245.55
245.72
245.49
245.61
245.59
245.69
245.69
245.61
245.76
245.71
245.67
245.71
245.67
245.79
245.77
245.7
245.76
245.8
245.76
245.79
245.77
245.79
245.85
245.8
245.85
245.81
245.92
245.83
245.82
246
245.76
245.97
245.95
245.96
246.04
245.89
245.94
246.07
246.04
245.98
246.03
246.07
246.04
245.98
246.03
246.07
246.12
246.08
246.03
246.16
246.05
246.14
246.15
246.14
246.23
246.06
246.21
246.17
246.2
246.17
246.2
246.18
246.11
246.17
246.12
246.25
246.3
246.26
246.21
246.33
246.23
246.23
246.32
246.33
246.41
246.34
246.31
246.33
246.4
246.34
246.31
246.33
246.31
246.42
246.42
246.5
246.35
246.47
246.45
246.38
246.54
246.48
246.62
246.49
246.6
246.51
246.51
246.5
246.59
246.6
246.51
246.59
246.61
246.59
246.6
246.59
246.69
246.69
246.6
246.68
246.61
246.67
246.62
246.66
246.72
246.75
246.72
246.66
246.8
246.76
246.71
246.67
246.88
246.78
246.69
246.77
246.87
246.87
246.7
246.76
246.71
246.84
246.81
246.83
246.9
246.84
246.81
246.75
246.72
246.92
246.83
246.82
246.92
246.83
246.91
246.84
246.99
246.94
246.89
246.85
246.8
246.93
246.9
246.93
246.91
247.01
246.92
247
247.02
247
246.93
246.99
247.11
247
247.02
247
247.19
247.11
247
247.01
247
247.1
247.19
247.02
247.08
247.12
247.08
247.12
247.17
247.21
247.09
247.2
247.27
247.21
247.18
247.12
247.08
247.2
247.27
247.21
247.26
247.22
247.25
247.23
247.24
247.32
247.25
247.31
247.26
247.31
247.18
247.12
247.25
247.31
247.17
247.21
247.18
247.29
247.28
247.2
247.27
247.29
247.27
247.2
247.35
247.4
247.36
247.31
247.43
247.41
247.43
247.41
247.42
247.5
247.35
247.4
247.35
247.48
247.46
247.39
247.54
247.58
247.46
247.39
247.36
247.47
247.47
247.38
247.63
247.58
247.54
247.49
247.53
247.67
247.55
247.56
247.64
247.57
247.63
247.58
247.63
247.67
247.63
247.58
247.8
247.7
247.61
247.69
247.62
247.76
247.64
247.74
247.74
247.74
247.75
247.65
247.74
247.75
247.83
247.76
247.82
247.93
247.83
247.83
248.09
247.95
247.99
248.05
248
248.04
248
248.03
248.18
248.06
247.99
248.05
248.17
248.15
248.07
248.14
248.08
248.14
248.17
248.14
248.08
248.14
248.09
248.22
248.28
248.14
248.17
248.23
248.27
248.24
248.26
248.24
248.26
248.33
248.18
248.23
248.27
248.32
248.28
248.31
248.28
248.39
248.3
248.38
248.49
248.3
248.38
248.4
248.47
248.41
248.37
248.49
248.39
248.47
248.49
248.39
248.39
248.47
248.49
248.47
248.41
248.46
248.5
248.37
248.49
248.47
248.49
248.47
248.57
248.49
248.48
248.49
248.65
248.51
248.54
248.6
248.63
248.61
248.54
248.61
248.63
248.61
248.54
248.61
248.63
248.61
248.54
248.61
248.63
248.61
248.62
248.62
248.71
248.64
248.6
248.64
248.6
248.81
248.63
248.7
248.72
248.79
248.73
248.7
248.81
248.8
248.72
248.71
248.81
248.81
248.72
248.71
248.63
248.79
248.74
248.78
248.66
248.76
248.68
248.66
248.68
248.65
248.77
248.66
248.59
248.56
248.67
248.66
248.68
248.66
248.68
248.57
248.75
248.68
248.66
248.67
248.66
248.67
248.66
248.67
248.67
248.58
248.57
248.58
248.66
248.59
248.56
248.58
248.57
248.58
248.57
248.49
248.65
248.51
248.45
248.51
248.54
248.34
248.43
248.44
248.42
248.53
248.35
248.43
248.44
248.52
248.36
248.41
248.37
248.32
248.28
248.31
248.37
248.32
248.27
248.31
248.28
248.22
248.19
248.22
248.28
248.31
248.2
248.21
248.2
248.21
248.2
248.12
248.19
248.13
248.1
248.12
248.19
248.13
248.18
248.14
248.09
248.13
248.09
248.13
248.1
248.04
248
247.95
248.08
247.97
247.89
247.96
247.98
247.96
247.89
247.96
247.99
247.96
247.89
247.87
247.89
247.96
247.81
247.85
247.82
247.85
247.82
247.76
247.82
247.85
247.74
247.75
247.83
247.76
247.73
247.67
247.81
247.68
247.62
247.68
247.71
247.68
247.62
247.59
247.62
247.68
247.62
247.59
247.62
247.51
247.52
247.6
247.61
247.51
247.51
247.6
247.52
247.59
247.44
247.49
247.45
247.48
247.46
247.39
247.45
247.31
247.35
247.4
247.35
247.22
247.25
247.31
247.34
247.23
247.24
247.32
247.25
247.23
247.08
247.12
247.25
247.22
247.16
247.04
247.06
247.13
246.99
246.94
246.98
247.03
247.07
246.95
247.06
246.97
246.96
247.05
246.97
247.04
246.89
246.94
246.98
246.86
246.88
246.95
246.89
246.85
246.8
246.84
246.81
246.75
246.8
246.76
246.8
246.76
246.79
246.77
246.7
246.76
246.71
246.75
246.63
246.65
246.72
246.57
246.7
246.67
246.7
246.59
246.68
246.61
246.58
246.61
246.58
246.61
246.5
246.6
246.68
246.53
246.57
246.62
246.49
246.52
246.49
246.61
246.5
246.51
246.5
246.51
246.42
246.5
246.51
246.5
246.43
246.49
246.52
246.4
246.51
246.5
246.42
246.49
246.43
246.48
246.44
246.47
246.45
246.47
246.46
246.46
246.46
246.29
246.44
246.47
246.36
246.46
246.47
246.37
246.46
246.29
246.35
246.47
246.45
246.46
246.37
246.28
246.45
246.38
246.36
246.38
246.45
246.39
246.35
246.3
246.43
246.32
246.33
246.41
246.42
246.41
246.33
246.4
246.42
246.32
246.32
246.33
246.32
246.41
246.41
246.5
246.42
246.41
246.42
246.41
246.42
246.33
246.32
246.33
246.4
246.43
246.31
246.33
246.31
246.42
246.32
246.41
246.34
246.4
246.34
246.31
246.42
246.32
246.32
246.41
246.34
246.4
246.34
246.3
246.43
246.32
246.33
246.32
246.32
246.32
246.32
246.32
246.32
246.33
246.24
246.23
246.32
246.33
246.32
246.33
246.32
246.33
246.24
246.31
246.33
246.32
246.25
246.22
246.33
246.32
246.33
246.32
246.33
246.4
246.42
246.41
246.42
246.49
246.43
246.48
246.44
246.3
246.43
246.4
246.34
246.31
246.42
246.41
246.34
246.4
246.43
246.4
246.43
246.32
246.41
246.42
246.5
246.43
246.4
246.51
246.5
246.51
246.42
246.5
246.43
246.49
246.44
246.39
246.52
246.49
246.43
246.4
246.51
246.42
246.5
246.43
246.49
246.44
246.48
246.62
246.49
246.6
246.51
246.51
246.51
246.51
246.5
246.51
246.5
246.59
246.6
246.42
246.49
246.6
246.59
246.52
246.58
246.53
246.65
246.55
246.55
246.64
246.56
246.63
246.56
246.54
246.64
246.56
246.63
246.66
246.62
246.66
246.54
246.65
246.63
246.65
246.63
246.65
246.63
246.65
246.63
246.82
246.66
246.63
246.65
246.72
246.75
246.64
246.65
246.64
246.73
246.74
246.65
246.64
246.65
246.64
246.65
246.73
246.74
246.73
246.66
246.8
246.76
246.79
246.77
246.7
246.77
246.7
246.68
246.78
246.78
246.69
246.78
246.78
246.87
246.79
246.77
246.87
246.88
246.78
246.78
246.86
246.97
246.78
246.86
246.96
246.96
246.87
246.87
246.87
246.96
246.8
246.85
246.8
246.93
246.91
246.84
246.9
246.93
246.91
246.92
246.91
246.92
246.92
246.83
246.99
246.85
246.89
246.94
246.98
246.95
246.89
247.02
247
247.02
246.92
246.92
247.09
247.02
246.91
247
247.1
247.01
247
246.92
247
247.02
247
247.01
247.09
247.02
247
246.93
246.99
247.02
246.99
247.02
247.08
247.11
247
247.01
247.09
247.11
247.1
247.02
247.17
247.21
247.09
247.02
247.08
247.2
247.1
247.01
247.26
247.22
247.17
247.21
247.26
247.22
247.16
247.13
247.24
247.23
247.15
247.23
247.16
247.22
247.17
247.13
247.16
247.22
247.17
247.21
247.26
247.31
247.18
247.2
247.27
247.3
247.27
247.21
247.35
247.4
247.27
247.29
247.36
247.3
247.27
247.3
247.44
247.4
247.35
247.31
247.43
247.42
247.34
247.41
247.35
247.4
247.35
247.39
247.53
247.5
247.44
247.41
247.43
247.5
247.44
247.49
247.45
247.57
247.55
247.56
247.55
247.48
247.55
247.48
247.71
247.69
247.62
247.59
247.7
247.7
247.61
247.69
247.7
247.69
247.61
247.6
247.61
247.77
247.63
247.67
247.81
247.77
247.72
247.68
247.8
247.87
247.81
247.77
247.89
247.87
247.89
247.88
247.97
247.98
247.88
247.88
247.97
248.07
247.89
247.87
247.89
248.05
248
247.95
247.91
248.03
248.01
248.02
248.1
248.03
248.1
248.04
248.18
248.14
248.09
248.13
248.18
248.22
248.1
248.12
248.19
248.21
248.2
248.21
248.2
248.29
248.22
248.19
248.22
248.27
248.32
248.27
248.4
248.29
248.31
248.29
248.39
248.21
248.37
248.41
248.46
248.42
248.36
248.41
248.54
248.52
248.53
248.52
248.44
248.6
248.55
248.6
248.64
248.61
248.63
248.61
248.71
248.72
248.53
248.61
248.71
248.8
248.64
248.69
248.82
248.8
248.72
248.79
248.82
248.62
248.7
248.81
248.8
248.73
248.7
248.81
248.88
248.83
248.7
248.81
248.88
248.91
248.8
248.81
248.97
249.01
248.8
248.9
248.73
248.79
248.74
248.78
248.83
248.78
248.83
248.87
248.84
248.86
248.84
248.86
248.85
248.85
248.94
248.86
249.02
248.96
249.02
248.97
249.1
248.99
249.08
249.17
249.27
249.19
249.17
249.27
249.27
249.27
249.18
249.26
249.37
249.36
249.28
249.35
249.29
249.34
249.3
249.33
249.39
249.34
249.3
249.24
249.38
249.35
249.29
249.34
249.3
249.33
249.39
249.25
249.46
249.37
249.36
249.46
249.37
249.53
249.31
249.32
249.49
249.34
249.38
249.44
249.39
249.43
249.4
249.34
249.48
249.27
249.36
249.46
249.37
249.45
249.38
249.44
249.47
249.36
249.37
249.36
249.45
249.29
249.25
249.37
249.35
249.46
249.28
249.35
249.38
249.35
249.29
249.26
249.28
249.35
249.2
249.24
249.3
249.25
249.29
249.16
249.19
249.26
249.2
249.16
249.28
249.18
249.09
249.08
249.09
249.17
249.01
249.06
249.02
249.05
249.03
249.05
249.12
248.88
249
249.07
248.92
248.96
248.93
248.96
249.02
248.96
248.93
248.96
249.02
248.96
248.93
249.05
249.12
249.05
249.11
249.06
249.19
249.17
249.1
249.07
249.18
249.09
249.08
249.18
249.18
249.18
249.09
249.17
249.18
249.17
249.09
249.16
249.19
249.25
249.11
249.15
249.29
249.34
249.21
249.15
249.29
249.25
249.2
249.16
249.19
249.25
249.2
249.16
249.2
249.25
249.2
249.15
249.28
249.17
249.18
249.26
249.19
249.25
249.2
249.25
249.29
249.25
249.2
249.24
249.21
249.24
249.21
249.23
249.22
249.23
249.31
249.24
249.21
249.23
249.22
249.23
249.22
249.22
249.31
249.23
249.3
249.24
249.21
249.33
249.31
249.24
249.22
249.23
249.31
249.24
249.3
249.34
249.3
249.33
249.39
249.43
249.48
249.44
249.56
249.63
249.57
249.8
249.69
249.61
249.68
249.7
249.68
249.61
249.76
249.63
249.74
249.83
249.83
249.92
249.93
249.84
250
250.04
250
250.13
250.19
250.23
250.19
250.31
250.37
250.41
250.37
250.59
250.49
250.58
250.59
250.58
250.59
250.76
250.7
250.83
250.89
250.93
250.9
250.92
251
251.01
251.09
251.11
251.18
250.94
251.07
251.22
251.18
251.21
251.27
251.22
251.27
251.22
251.26
251.23
251.35
251.33
251.25
251.23
251.52
251.54
251.43
251.44
251.52
251.63
251.53
251.62
251.54
251.6
251.64
251.7
251.83
251.8
251.82
251.89
251.92
251.98
251.84
251.87
252.03
251.89
252.01
252.09
252.11
252.18
252.21
252.27
252.31
252.36
252.41
252.37
252.4
252.37
252.49
252.57
252.58
252.57
252.58
252.57
252.67
252.59
252.57
252.68
252.67
252.68
252.67
252.77
252.77
252.77
252.77
252.86
252.96
252.96
252.87
252.95
253.06
252.97
252.95
252.97
253.04
253.07
253.04
253.07
253.13
253.26
253.24
253.26
253.24
253.17
253.23
253.27
253.23
253.35
253.34
253.35
253.34
253.26
253.42
253.46
253.42
253.46
253.42
253.46
253.43
253.36
253.42
253.37
253.41
253.38
253.4
253.48
253.41
253.56
253.52
253.46
253.42
253.55
253.44
253.44
253.44
253.44
253.53
253.36
253.42
253.46
253.52
253.47
253.42
253.46
253.33
253.35
253.34
253.44
253.44
253.35
253.43
253.45
253.35
253.25
253.34
253.35
253.34
253.26
253.33
253.27
253.32
253.27
253.22
253.27
253.32
253.19
253.21
253.28
253.22
253.27
253.22
253.18
253.22
253.18
253.21
253.28
253.22
253.27
253.23
253.27
253.23
253.17
253.23
253.09
253.21
253.11
253.1
253.11
253.1
253.2
253.11
253.28
253.13
253.08
253.12
253.26
253.23
253.17
253.23
253.26
253.32
253.09
253.2
253.38
253.23
253.18
253.22
253.27
253.23
253.18
253.31
253.37
253.32
253.28
253.31
253.37
253.32
253.27
253.32
253.37
253.41
253.37
253.41
253.47
253.42
253.46
253.42
253.45
253.61
253.47
253.5
253.48
253.59
253.59
253.58
253.68
253.59
253.58
253.68
253.77
253.78
253.78
253.78
253.87
253.79
253.77
253.79
253.86
253.89
253.77
253.69
253.76
253.79
253.86
253.8
253.76
253.89
253.86
253.79
253.94
253.82
253.83
253.82
253.92
254.02
253.84
253.91
254.02
254.02
253.93
254.01
254.03
254.1
254.04
254.01
254.12
254.11
254.03
254.01
254.02
254.2
254.14
254.1
254.22
254.21
254.13
254.2
254.5
254.78
254.81
254.79
254.8
254.97
254.83
254.86
254.92
254.96
254.93
254.86
254.92
254.87
254.92
254.96
254.93
254.96
254.84
254.94
254.95
254.93
254.95
254.93
254.96
255.02
254.97
254.92
255.06
254.84
255.03
254.95
255.12
255.07
254.93
254.96
255.11
254.98
255
255.08
255.1
255.17
255.02
255.06
255.11
255.16
255.03
255.05
255.12
255.15
255.13
255.06
255.03
255.14
255.13
255.14
255.32
255.16
255.21
255.17
255.2
255.27
255.21
255.26
255.3
255.27
255.21
255.17
255.38
255.39
255.19
255.27
255.29
255.37
255.3
255.27
255.3
255.37
255.3
255.36
255.4
255.37
255.3
255.36
255.49
255.38
255.38
255.38
255.38
255.38
255.29
255.37
255.39
255.38
255.39
255.38
255.38
255.47
255.39
255.46
255.5
255.47
255.31
255.35
255.5
255.46
255.31
255.35
255.32
255.43
255.34
255.32
255.44
255.24
255.32
255.34
255.42
255.35
255.32
255.25
255.49
255.38
255.39
255.38
255.47
255.49
255.38
255.48
255.48
255.48
255.39
255.47
255.31
255.44
255.42
255.44
255.52
255.54
255.43
255.43
255.62
255.54
255.43
255.43
255.43
255.52
255.54
255.52
255.63
255.53
255.53
255.53
255.62
255.63
255.53
255.52
255.63
255.63
255.63
255.53
255.62
255.64
255.62
255.63
255.62
255.63
255.62
255.63
255.72
255.73
255.63
255.72
255.73
255.81
255.65
255.69
255.85
255.62
255.72
255.73
255.72
255.73
255.72
255.82
255.83
255.73
255.81
255.83
255.9
255.75
255.79
255.86
255.88
255.87
255.88
255.87
255.87
255.79
255.76
255.98
255.87
255.97
255.88
255.96
255.98
255.97
255.88
255.87
255.97
256.07
255.88
255.95
255.98
256.05
255.99
255.95
256.08
256.06
255.98
255.96
256.07
255.98
256.05
256.18
256.16
256.27
256.08
256.15
256.27
256.26
256.18
256.16
256.27
256.27
256.17
256.25
256.19
256.33
256.21
256.31
256.32
256.31
256.42
256.32
256.41
256.32
256.31
256.41
256.51
256.23
256.39
256.35
256.47
256.46
256.38
256.44
256.39
256.44
256.4
256.34
256.48
256.45
256.48
256.45
256.56
256.38
256.44
256.57
256.55
256.57
256.46
256.56
256.56
256.56
256.47
256.55
256.57
256.55
256.57
256.55
256.66
256.66
256.48
256.54
256.58
256.64
256.59
256.63
256.69
256.54
256.58
256.64
256.68
256.64
256.49
256.62
256.7
256.63
256.51
256.52
256.7
256.63
256.5
256.52
256.6
256.62
256.61
256.61
256.79
256.73
256.6
256.62
256.61
256.61
256.7
256.62
256.69
256.63
256.68
256.73
256.78
256.65
256.67
256.75
256.77
256.75
256.67
256.75
256.77
256.84
256.78
256.84
256.88
256.84
256.78
256.74
256.77
256.84
256.78
256.83
256.88
256.84
256.87
256.85
256.96
256.96
256.86
256.95
256.96
256.95
256.96
256.96
256.96
256.96
256.95
256.96
256.86
256.95
256.96
256.95
256.96
257.05
256.97
257.04
257.07
256.95
256.96
257.05
256.88
256.93
256.98
256.94
257.07
257.05
257.07
257.05
257.06
257.14
257.07
257.04
257.25
257.16
257.06
257.15
257.16
257.15
257.16
257.15
257.16
257.15
257.16
257.16
257.25
257.35
257.08
257.22
257.19
257.12
257.19
257.03
257.26
257.25
257.17
257.24
257.27
257.24
257.27
257.24
257.26
257.25
257.26
257.34
257.37
257.25
257.26
257.34
257.36
257.44
257.37
257.34
257.37
257.43
257.38
257.42
257.48
257.34
257.46
257.54
257.57
257.54
257.47
257.53
257.48
257.52
257.58
257.53
257.57
257.63
257.58
257.62
257.59
257.61
257.6
257.61
257.69
257.61
257.69
257.62
257.68
257.72
257.59
257.61
257.69
257.71
257.69
257.62
257.78
257.64
257.76
257.75
257.75
257.66
257.83
257.88
257.83
257.78
257.72
257.87
257.83
257.87
257.74
257.77
257.92
257.89
257.82
257.88
257.73
257.96
257.85
257.85
257.85
257.95
257.86
257.84
257.95
258.04
257.87
257.93
257.98
257.93
257.97
257.84
258.05
257.96
257.94
257.96
257.94
258.05
258.05
258.05
258.05
258.05
258.05
257.96
258.04
258.07
258.13
258.08
258.03
257.98
258.11
258.09
258.01
258.09
258.11
258.28
258.13
258.17
258.14
258.07
258.13
258.17
258.13
258.17
258.14
258.16
258.24
258.17
258.13
258.26
258.25
258.25
258.16
258.24
258.27
258.14
258.35
258.36
258.35
258.26
258.34
258.36
258.44
258.28
258.32
258.38
258.33
258.37
258.33
258.37
258.43
258.37
258.33
258.37
258.43
258.38
258.33
258.28
258.41
258.48
258.42
258.57
258.44
258.36
258.43
258.56
258.55
258.46
258.54
258.66
258.55
258.45
258.54
258.46
258.53
258.47
258.52
258.58
258.53
258.57
258.54
258.56
258.63
258.48
258.52
258.67
258.54
258.56
258.64
258.67
258.64
258.57
258.63
258.67
258.73
258.68
258.63
258.67
258.73
258.68
258.63
258.68
258.72
258.68
258.62
258.77
258.74
258.77
258.65
258.75
258.76
258.65
258.75
258.66
258.83
258.69
258.81
258.89
258.81
258.7
258.8
258.9
258.81
258.8
258.71
258.79
258.81
258.8
258.81
258.8
258.9
258.91
258.8
258.99
258.92
258.89
258.82
258.79
258.91
258.9
258.91
258.9
258.9
258.9
258.81
258.98
258.93
258.98
258.94
258.97
258.94
258.96
258.95
259.05
259.06
258.95
259.05
259.05
259.06
258.96
259.05
259.06
259.05
258.96
259.04
259.06
259.05
258.96
259.04
259.07
259.14
259.17
259.14
259.16
259.15
259.16
259.15
259.16
259.25
259.17
259.14
259.26
259.16
259.24
259.36
259.25
259.45
259.37
259.34
259.46
259.45
259.46
259.55
259.57
259.55
259.56
259.65
259.76
259.85
259.78
259.84
259.88
259.94
259.7
259.81
259.91
259.82
259.9
259.82
259.9
259.92
259.9
259.92
259.91
260.01
260.02
259.91
260.11
259.84
259.98
260.05
259.99
260.04
259.99
259.94
260.08
260.05
259.98
260.04
260.08
260.14
260
260.03
260.19
260.14
260
260.03
260
260.02
260.01
260.02
260.11
260.03
260
259.93
259.99
260.03
260
260.03
260
260.02
260.01
260.02
260.2
259.95
260.07
260.06
260.16
260.18
260.06
260.17
260.26
260.28
260.07
260.16
260.08
260.24
260.1
260.22
260.21
260.13
260.11
260.12
260.3
260.24
260.2
260.23
260.3
260.24
260.19
260.24
260.2
260.23
260.21
260.23
260.3
260.24
260.29
260.24
260.19
260.24
260.29
260.34
260.2
260.32
260.32
260.32
260.41
260.33
260.4
260.24
260.29
260.35
260.39
260.35
260.29
260.44
260.4
260.34
260.49
260.55
260.5
260.45
260.49
260.36
260.37
260.46
260.57
260.57
260.47
260.47
260.57
260.68
260.58
260.57
260.57
260.57
260.57
260.48
260.56
260.68
260.57
260.67
260.68
260.77
260.69
260.76
260.7
260.75
260.71
260.83
260.82
260.83
260.83
260.73
260.92
260.75
260.9
260.86
260.99
260.98
260.98
261.07
261.09
260.98
261.07
261.09
261.07
261
260.96
261.19
261.18
261.19
261.09
261.08
261.09
261.08
260.99
261.07
261.1
261.07
261
261.06
261.1
261.06
261.01
261.15
261.12
261.05
261.12
261.15
261.13
261.04
261.12
261.15
261.22
261.15
261.12
261.15
261.22
261.25
261.13
261.13
261.23
261.24
261.24
261.14
261.32
261.26
261.22
261.25
261.32
261.26
261.31
261.17
261.29
261.29
261.19
261.28
261.3
261.28
261.2
261.27
261.3
261.18
261.19
261.38
261.3
261.37
261.31
261.27
261.4
261.48
261.32
261.36
261.32
261.35
261.33
261.35
261.52
261.37
261.31
261.36
261.41
261.47
261.42
261.37
261.51
261.48
261.41
261.38
261.4
261.48
261.41
261.47
261.51
261.38
261.4
261.39
261.49
261.5
261.39
261.49
261.5
261.59
261.41
261.47
261.51
261.47
261.51
261.57
261.61
261.58
261.51
261.57
261.62
261.39
261.49
261.59
261.69
261.61
261.49
261.6
261.69
261.71
261.59
261.6
261.69
261.71
261.59
261.69
261.7
261.69
261.6
261.68
261.71
261.78
261.63
261.66
261.73
261.76
261.65
261.64
261.75
261.65
261.74
261.66
261.83
261.78
261.73
261.67
261.72
261.77
261.83
261.78
261.92
261.8
261.8
261.8
261.8
261.9
261.81
261.79
261.91
261.9
261.9
261.81
261.89
262.01
261.9
261.81
261.89
261.92
261.89
262.01
261.81
261.99
261.93
261.98
262.03
261.89
262.01
262
261.92
261.99
261.93
261.98
261.94
261.97
262.04
261.98
262.03
261.89
262.01
262.1
262.12
262.1
262.12
262.1
262.11
262.11
262.11
262.11
262.01
262.1
262.12
262
262.01
262.1
262.12
262.01
262.1
262.22
262.11
262.2
262.22
262.01
262.09
262.22
262.2
262.22
262.2
262.22
262.2
262.22
262.2
262.12
262.19
262.23
262.19
262.33
262.31
262.42
262.42
262.42
262.51
262.53
262.51
262.63
262.53
262.71
262.65
262.7
262.86
262.81
262.76
262.8
262.96
262.82
262.75
262.9
262.87
262.9
262.97
262.81
263.05
263.03
263.05
263.13
263.06
263.12
263.07
263.11
263.17
263.12
263.17
263.22
263.18
263.31
263.39
263.51
263.61
263.52
263.6
263.53
263.69
263.65
263.58
263.64
263.59
263.63
263.69
263.74
263.9
263.85
263.89
263.86
263.98
263.88
263.96
263.99
264.16
264.02
264.23
264.45
264.34
264.54
264.46
264.74
264.79
264.85
264.79
264.94
265.1
265.26
265.12
265.24
265.23
265.05
265.11
265.16
265.11
265.25
265.13
265.24
265.14
265.22
265.16
265.11
265.55
265.66
265.86
266.08
266.09
266.18
266.2
266.08
266.19
266.2
266.39
266.42
266.49
266.53
266.39
266.41
266.59
266.84
266.83
267.03
267.05
267.23
267.28
267.23
267.38
267.35
267.48
267.37
267.56
267.69
267.98
268.44
268.25
268.21
268.45
268.44
268.55
268.65
268.97
269
268.87
268.98
268.88
268.97
269.1
269.08
269.1
268.88
268.97
269
268.97
268.99
268.87
268.98
268.99
268.88
268.98
268.99
269.08
269.1
269.28
269.33
269.49
269.46
269.48
269.47
269.47
269.37
269.25
269.46
269.38
269.35
269.27
269.25
269.36
269.27
269.14
269.25
269.15
269.24
269.16
269.13
269.16
269.24
269.27
269.24
269.26
269.25
269.16
269.24
269.27
269.24
269.27
269.25
269.26
269.35
269.27
269.44
269.5
269.55
269.61
269.66
269.72
269.77
269.83
269.87
269.94
269.98
270.25
270.32
270.37
270.23
270.25
270.44
270.27
270.31
270.28
270.4
270.51
270.41
270.5
270.52
270.5
270.41
270.49
270.63
270.62
270.42
270.49
270.53
270.6
270.54
270.49
270.53
270.6
270.54
270.59
270.65
270.6
270.54
270.49
270.63
270.51
270.51
270.62
270.62
270.62
270.52
270.61
270.63
270.61
270.53
270.6
270.54
270.59
270.54
270.58
270.65
270.59
270.55
270.48
270.74
270.62
270.62
270.62
270.52
270.71
270.54
270.58
270.55
270.58
270.56
270.47
270.65
270.49
270.53
270.5
270.63
270.62
270.52
270.5
270.72
270.64
270.5
270.62
270.62
270.62
270.52
270.61
270.53
270.5
270.42
270.48
270.54
270.59
270.55
270.48
270.64
270.6
270.64
270.61
270.63
270.71
270.65
270.6
270.54
270.59
270.55
270.48
270.54
270.69
270.67
270.58
270.66
270.69
270.67
270.68
270.77
270.69
270.66
270.69
270.77
270.8
270.78
270.79
270.88
270.7
270.76
270.91
270.98
270.92
270.87
270.81
270.97
270.94
270.86
270.93
270.87
270.82
270.86
270.93
270.77
270.7
270.86
270.83
270.75
270.72
270.64
270.71
270.65
270.7
270.55
270.47
270.44
270.47
270.45
270.46
270.55
270.37
270.43
270.48
270.53
270.49
270.43
270.38
270.52
270.61
270.43
270.38
270.42
270.49
270.43
270.48
270.43
270.58
270.46
270.46
270.56
270.47
270.55
270.48
270.64
270.5
270.42
270.49
270.53
270.6
270.43
270.37
270.53
270.6
270.43
270.48
270.44
270.47
270.45
270.36
270.54
270.49
270.43
270.48
270.54
270.28
270.3
270.49
270.32
270.47
270.45
270.36
270.44
270.47
270.34
270.35
270.45
270.36
270.34
270.25
270.33
270.16
270.3
270.39
270.21
270.36
270.33
270.36
270.34
270.25
270.33
270.26
270.42
270.28
270.2
270.38
270.42
270.49
270.43
270.27
270.41
270.4
270.3
270.49
270.43
270.38
270.32
270.27
270.31
270.28
270.2
270.37
270.33
270.26
270.22
270.25
270.33
270.26
270.22
270.15
270.31
270.38
270.22
270.15
270.21
270.26
270.22
270.15
270.31
270.28
270.1
270.25
270.22
270.04
270.1
270.15
270.21
270.16
270.1
270.15
270.11
270.15
270.11
270.14
270.22
270.25
270.12
270.03
270.11
270.14
270.12
270.14
270.12
270.03
270.11
270.14
270.22
270.15
270.11
270.15
270.11
270.14
270.01
270.02
270.22
270.15
270.21
270.16
270.3
270.28
270.2
270.17
270.19
270.28
270.2
270.17
270.19
270.18
270.19
270.28
270.3
270.29
270.19
270.18
270.29
270.3
270.18
270.29
270.3
270.39
270.21
270.16
270.2
270.27
270.21
270.16
270.1
270.15
270.11
270.14
270.22
270.15
270.21
270.16
270.2
270.27
270.11
270.14
270.12
270.14
270.12
270.13
270.23
270.04
270.1
270.15
270.21
270.16
270.2
270.16
270.2
270.27
270.11
270.04
270.1
269.95
270.08
270.07
270.07
270.18
270.08
270.17
270.09
270.05
270.09
270.06
270.29
270.2
270.07
270.08
270.17
270.2
269.96
270.17
270.09
270.06
270.09
270.06
270.08
270.17
270.1
270.16
270.11
270.15
270.11
270.04
270
270.03
269.91
269.91
269.91
269.8
269.9
269.91
270.01
269.72
269.87
269.94
269.98
269.95
269.77
269.93
269.9
269.92
269.8
269.8
269.9
269.91
269.81
269.79
269.91
269.8
269.8
269.8
269.8
269.8
269.7
269.68
269.7
269.68
269.7
269.58
269.79
269.61
269.66
269.72
269.77
269.73
269.56
269.61
269.66
269.62
269.65
269.52
269.63
269.54
269.51
269.65
269.52
269.64
269.53
269.32
269.5
269.56
269.4
269.54
269.51
269.54
269.41
269.43
269.51
269.44
269.29
269.43
269.41
269.33
269.29
269.23
269.38
269.35
269.27
269.35
269.27
269.34
269.18
269.32
269.2
269.1
269.18
269.22
269.19
269.21
269.19
269.21
269.09
268.99
269.08
269.2
269.1
269.08
269.1
269.08
269
269.07
269.01
268.95
269.01
269.06
269.03
268.94
268.92
268.93
268.93
268.82
268.82
268.92
268.95
268.81
268.94
268.82
268.83
268.71
268.82
268.62
268.69
268.63
268.69
268.53
268.57
268.54
268.56
268.54
268.46
268.43
268.45
268.43
268.35
268.32
268.24
268.31
268.25
268.3
268.26
268.09
268.24
268.11
268.22
268.13
268.1
268.23
268.12
268.12
268.01
268.11
268.12
268.11
268.02
268
268.02
268.01
267.91
267.99
267.92
267.99
267.93
267.88
267.93
267.88
267.82
267.77
267.71
267.77
267.82
267.67
267.8
267.79
267.6
267.67
267.71
267.67
267.6
267.56
267.69
267.58
267.58
267.59
267.57
267.69
267.49
267.46
267.48
267.56
267.39
267.44
267.5
267.45
267.4
267.34
267.49
267.46
267.38
267.25
267.37
267.47
267.28
267.24
267.27
267.25
267.27
267.25
267.26
267.25
267.16
267.24
267.07
267.22
267.2
267.11
267.19
267.02
267.07
267.02
267.06
267.13
267.07
267.02
267.16
267.04
267.05
266.94
267.03
267.06
266.83
266.83
266.93
266.95
266.93
266.85
266.91
266.86
266.7
266.74
266.8
266.76
266.79
266.77
266.78
266.68
266.76
266.79
266.66
266.88
266.68
266.76
266.59
266.74
266.71
266.63
266.5
266.71
266.63
266.5
266.62
266.61
266.52
266.4
266.51
266.41
266.5
266.42
266.49
266.43
266.48
266.44
266.37
266.43
266.28
266.31
266.29
266.4
266.4
266.2
266.28
266.31
266.38
266.22
266.16
266.31
266.28
266.11
266.16
266.22
266.17
266.11
266.06
266.2
266.08
266.09
265.99
265.97
266.09
265.98
266.08
265.89
265.95
266
265.96
266.09
265.98
265.88
265.87
265.88
265.97
265.89
265.86
265.98
265.88
265.87
265.98
265.88
265.87
265.78
265.86
265.69
265.73
265.8
265.74
265.79
265.84
265.7
265.72
265.81
265.73
265.7
265.62
265.79
265.74
265.59
265.72
265.81
265.73
265.7
265.62
265.69
265.73
265.6
265.61
265.71
265.62
265.6
265.52
265.69
265.54
265.47
265.53
265.57
265.64
265.48
265.52
265.49
265.51
265.5
265.51
265.5
265.5
265.5
265.5
265.51
265.5
265.51
265.5
265.41
265.48
265.42
265.37
265.52
265.39
265.41
265.29
265.49
265.51
265.39
265.4
265.49
265.41
265.38
265.41
265.48
265.42
265.37
265.32
265.46
265.44
265.35
265.34
265.35
265.34
265.34
265.35
265.43
265.37
265.22
265.36
265.33
265.36
265.23
265.35
265.24
265.34
265.25
265.33
265.36
265.43
265.27
265.31
265.27
265.3
265.28
265.3
265.38
265.31
265.28
265.3
265.38
265.41
265.29
265.19
265.18
265.29
265.3
265.19
265.19
265.18
265.29
265.19
265.28
265.2
265.17
265.2
265.08
265.18
265.19
265.08
265.28
265.2
265.17
265.2
265.27
265.11
265.15
265.12
265.24
265.24
265.24
265.14
265.22
265.26
265.12
265.24
265.23
265.34
265.14
265.12
265.24
265.24
265.04
265.12
265.25
265.23
265.14
265.12
265.24
265.34
265.15
265.21
265.16
265.2
265.07
265.08
265.27
265.11
265.06
265
265.15
265.12
265.05
265.01
265.04
265.11
265.05
265.1
265.16
265.21
265.07
265.09
265.07
265.08
265.08
265.08
265.18
265.19
265.09
265.07
265.19
265.08
265.08
264.98
265.07
265.09
265.17
265.1
265.16
265.11
265.05
265.1
265.16
265.11
265.05
265.1
265.06
265.1
265.06
265.09
265.17
265.1
265.16
265.11
265.05
265.11
265.06
265.1
265.16
265.11
265.05
265.1
265.06
265.1
265.06
265.09
264.97
265.08
264.99
264.96
265.09
264.98
265.07
264.99
264.96
265.08
265.08
265.08
265.08
265.08
265.08
264.98
264.97
264.98
265.07
264.99
265.06
265.1
264.96
264.99
265.16
265.11
265.05
265.01
265.04
265.11
265.05
265.11
265.15
265.12
265.05
265.11
265.15
265.12
265.04
265.11
265.15
265.02
265.03
265.03
265.03
265.03
265.02
265.13
265.03
265.02
265.03
265.13
265.14
265.13
265.03
265.12
265.14
265.22
265.06
265.1
265.16
265.01
265.04
265.11
265.15
265.02
265.03
265.12
265.14
265.12
265.04
265.11
265.15
265.12
265.05
265.11
265.16
265.11
265.15
265.02
265.13
265.13
265.13
265.13
265.13
265.23
265.05
265.11
265.25
265.13
265.14
265.23
265.15
265.21
265.06
265.09
265.27
265.21
265.16
265.1
265.16
265.21
265.17
265.2
265.27
265.21
265.17
265.2
265.27
265.21
265.07
265.09
265.17
265.19
265.18
265.19
265.28
265.3
265.19
265.08
265.18
265.29
265.2
265.17
265.3
265.19
265.28
265.1
265.26
265.22
265.15
265.31
265.27
265.11
265.25
265.23
265.34
265.25
265.12
265.24
265.23
265.34
265.15
265.12
265.34
265.35
265.14
265.13
265.23
265.35
265.14
265.22
265.25
265.33
265.26
265.22
265.35
265.34
265.25
265.33
265.36
265.14
265.22
265.35
265.34
265.35
265.24
265.34
265.35
265.34
265.25
265.23
265.44
265.36
265.23
265.35
265.34
265.35
265.24
265.33
265.35
265.33
265.35
265.34
265.35
265.44
265.36
265.42
265.47
265.53
265.38
265.4
265.49
265.51
265.4
265.39
265.5
265.5
265.51
265.49
265.61
265.5
265.5
265.5
265.61
265.61
265.51
265.49
265.71
265.52
265.59
265.62
265.6
265.52
265.49
265.61
265.7
265.52
265.68
265.55
265.66
265.66
265.66
265.67
265.65
265.67
265.65
265.67
265.65
265.67
265.65
265.68
265.55
265.66
265.66
265.76
265.77
265.57
265.64
265.78
265.75
265.88
265.67
265.75
265.78
265.76
265.78
265.76
265.77
265.66
265.66
265.66
265.66
265.66
265.66
265.76
265.77
265.76
265.67
265.75
265.68
265.74
265.69
265.73
265.7
265.62
265.7
265.73
265.8
265.73
265.8
265.74
265.79
265.65
265.77
265.86
265.69
265.74
265.79
265.84
265.8
265.83
265.81
265.63
265.79
265.85
265.8
265.84
265.8
265.83
265.81
265.73
265.9
265.65
265.77
265.87
265.78
265.76
265.77
265.76
265.77
265.76
265.77
265.77
265.76
265.77
265.76
265.77
265.76
265.77
265.86
265.79
265.74
265.69
265.73
265.9
265.75
265.88
265.76
265.77
265.86
265.88
265.76
265.87
265.68
265.64
265.78
265.76
265.87
265.77
265.76
265.77
265.66
265.76
265.67
265.65
265.77
265.76
265.67
265.65
265.67
265.65
265.67
