451.44
451.61
451.45
451.6
451.18
451.54
451.51
451.54
451.52
451.53
451.81
451.86
451.82
451.85
452.11
452.17
452.4
452.49
452.41
452.48
452.71
452.51
452.39
452.5
452.69
452.81
452.71
453.08
453.33
453.69
453.96
454.01
454.55
454.95
455.18
455.56
455.53
455.26
455.5
455.87
456.13
456.19
456.14
456.47
456.49
456.46
456.78
456.79
457.08
456.82
456.76
457.39
457.44
457.39
457.44
458.26
459.33
458.99
459.29
459.61
459.34
459.27
459.63
459.61
459.93
459.94
459.64
459.6
459.94
460.23
459.69
459.85
460.31
459.91
460.27
460.25
460.27
460.25
460.26
460.25
460.56
460.59
460.56
460.59
460.86
460.63
460.52
460.92
461.17
461.25
460.88
460.91
461.17
460.95
460.84
460.94
460.85
460.94
460.56
460.59
460.56
460.29
460.22
460.29
460.52
460.62
460.24
460.28
460.24
459.98
459.9
459.97
459.91
459.67
459.28
459.62
459.33
459.28
459.03
458.95
459.03
458.66
458.39
458.62
458.43
458.58
458.46
458.26
458.45
458.28
458.14
457.95
457.83
457.63
457.52
457.03
457.17
457.04
457.16
457.05
457.43
457.11
457.09
457.11
457.09
457.12
457.09
457.12
457.08
457.41
457.12
457.37
457.16
457.34
457.19
457.02
457.46
457.37
457.16
457.34
457.48
457.07
457.13
457.08
457.41
457.13
457.07
457.13
457.07
456.84
456.74
456.84
456.74
456.83
456.45
440.81
438.78
440.96
439.21
440.85
439.31
441.01
439.46
440.88
439.85
441.06
439.97
440.95
440.35
441.16
440.45
441.34
440.85
441.26
441.2
441.23
441.23
441.47
441.56
441.45
441.58
441.98
441.67
441.89
442.03
442.13
442.64
442.69
442.98
443.22
443.9
443.8
444.5
444.11
445.06
444.74
445.62
445.37
446.18
446.27
446.79
446.86
446.83
446.54
447.11
446.59
447.07
446.63
446.75
446.9
446.79
446.59
446.79
446.59
446.78
446.04
446.41
446.37
446.69
446.41
446.37
446.13
446.05
446.13
446.33
446.72
446.93
446.76
446.62
446.75
446.35
446.43
446.63
446.75
446.35
446.43
446.63
446.75
446.91
446.78
447.15
447.14
447.12
447.44
447.14
447.43
447.15
447.69
447.49
447.68
447.22
447.63
447.26
447.59
447.58
447.31
447.54
447.63
447.54
447.63
447.55
447.63
447.27
447.58
447.87
447.63
447.83
447.94
448.12
447.98
447.8
447.97
447.26
447.04
447.22
447.07
446.91
447.06
446.92
447.32
447.81
448.52
448.47
448.51
448.76
448.82
448.77
449.38
449.7
449.7
449.71
449.69
449.99
450.01
450.28
449.76
449.93
450.07
450.23
450.1
450.21
450.4
450.51
450.7
450.82
450.72
451.08
451.35
451.4
451.65
451.43
451.62
451.74
452.2
451.8
452.14
452.15
452.13
452.16
451.83
452.13
451.86
452.1
452.17
451.83
452.12
452.17
451.82
452.14
451.85
451.82
451.84
452.12
452.16
452.42
452.19
452.67
452.83
452.98
453.13
453
453.4
452.77
453.31
453.43
453.31
453.43
453.31
453.72
453.64
453.72
453.64
454.29
454.3
454.3
454.3
454.59
454.34
454.55
454.66
454.56
454.94
454.61
454.89
455.23
454.94
455.19
455.26
455.2
455.55
455.24
455.5
455.86
456.13
456.19
456.14
456.77
456.81
456.77
456.8
456.77
456.51
456.73
456.84
457.03
456.88
456.7
457.16
456.76
457.11
457.39
457.15
457.06
457.14
457.35
457.76
457.99
458.09
457.7
457.75
458
457.79
458.26
458.45
458.27
458.14
457.66
457.79
457.96
458.12
457.98
458.4
458.33
458.39
458.33
458.67
458.68
458.67
458.68
458.66
458.68
458.66
458.69
458.66
458.98
459.58
459.37
459.25
459.66
459.59
459.65
459.89
460.28
460.23
460.28
460.23
460.28
460.23
460.57
460.28
460.24
460.27
459.95
460.23
460.28
459.94
460.24
460.27
460.54
460.61
460.54
460.9
460.59
460.85
460.93
460.56
460.59
460.86
460.92
461.46
462.2
462.15
462.79
462.84
463.09
464.08
464.73
464.77
464.43
465.02
464.82
464.38
464.46
464.39
464.46
463.5
463.12
463.15
462.82
463.4
463.2
462.77
462.85
462.78
462.55
462.74
462.58
462.71
462.61
462.69
462.93
462.71
463.21
463.07
462.89
463.04
462.92
462.72
462.9
462.74
462.88
462.75
462.86
463.07
462.89
463.04
462.92
463.02
463.24
463.05
463.51
463.41
463.19
463.08
463.18
463.1
463.16
463.12
463.15
463.43
463.18
463.1
462.86
463.37
463.23
463.05
463.51
463.11
463.15
463.43
463.48
463.44
463.17
463.11
463.15
463.42
463.49
463.13
463.13
463.44
463.17
463.41
463.5
463.42
464.69
465.11
465.64
465.8
465.34
465.76
465.69
466.06
466.04
466.06
466.34
466.71
466.38
466.67
466.73
466.98
467.07
466.99
467.37
467.65
468.02
468.92
469.99
470.61
470.7
471.55
472.37
472.9
473.39
473.58
474.05
475.21
475.8
475.59
475.78
475.61
475.77
475.62
476.07
476.32
476.42
476.33
476.41
476.66
476.76
476.98
477.43
477.36
477.42
477.37
477.1
477.01
476.77
476.98
477.12
476.99
477.11
477.01
477.1
477.02
476.77
476.98
476.8
476.95
476.83
476.61
477.12
476.67
476.43
476.64
476.78
476.66
476.76
476.67
475.8
475.28
475.1
475.25
475.44
475.59
475.78
475.93
476.76
476.68
477.38
478.05
478.74
479.44
479.47
479.77
480.79
481.21
481.16
481.54
481.52
482.19
482.26
482.86
483.32
483.9
484.38
484.62
485.4
485.72
485.77
485.73
485.76
485.74
485.75
486.07
486.12
486.41
486.49
486.42
486.15
486.72
487.55
487.82
488.26
488.22
487.91
487.84
487.9
487.85
487.89
487.86
488.22
487.92
488.17
487.96
488.46
488.72
488.14
488.65
488.53
488.65
488.87
489.02
488.89
489.01
488.9
489.33
488.95
489.61
489.39
489.57
490.09
490.3
490.14
490.6
490.55
490.57
490.58
490.54
491.28
490.62
490.87
490.98
491.23
491
490.54
490.25
490.85
490.32
490.78
490.39
490.39
490.73
490.09
490.31
490.46
490.32
490.11
489.95
489.76
489.59
489.74
489.94
489.77
489.58
489.41
489.55
489.77
489.58
489.41
489.55
489.1
489.15
489.45
489.18
489.42
489.21
489.06
489.19
489.42
489.22
489.05
488.86
489.36
488.93
488.96
488.62
488.23
487.91
487.83
488.25
488.21
488.26
487.87
487.89
487.86
488.23
487.9
488.19
487.93
488.16
488.3
488.18
488.61
488.24
488.22
488.25
488.21
488.26
488.21
488.6
488.25
488.22
488.58
488.61
488.24
488.57
488.28
488.53
488.65
488.21
488.59
488.6
488.58
488.6
488.25
488.55
488.96
488.94
488.62
488.57
488.95
488.95
488.95
488.96
488.94
489.29
488.99
488.91
489.32
488.97
488.93
489.3
488.98
489.25
489.36
489.26
489.35
488.93
489.3
489.32
489.97
490.75
490.74
490.75
490.41
490.7
490.79
491.05
490.83
491.34
491.26
490.97
491.24
490.99
491.22
491.01
491.54
491.41
491.19
491.38
491.22
491.35
491.59
491.03
491.52
491.43
491.51
491.44
491.5
491.79
491.54
491.42
491.86
491.48
491.8
491.87
491.46
492.16
491.89
491.79
491.88
491.8
491.87
492.15
492.24
491.82
491.84
491.83
491.84
492.18
491.88
491.8
492.21
492.53
492.25
492.16
492.23
492.17
492.22
492.18
492.21
491.85
491.82
492.19
492.2
492.2
492.2
492.54
492.58
492.55
492.57
492.56
492.57
492.9
492.61
492.52
492.94
492.58
492.88
492.97
492.55
492.92
492.93
492.92
492.93
492.93
492.93
492.93
492.92
492.93
492.58
492.88
492.63
492.5
492.62
492.51
492.61
492.52
492.26
492.48
492.64
492.49
492.62
492.51
492.61
492.18
492.22
492.52
492.6
492.53
492.25
492.49
492.63
492.5
492.62
492.51
492.61
492.52
492.26
492.48
492.63
492.16
492.57
492.56
492.56
492.56
492.56
492.9
492.61
492.86
492.64
492.83
493.01
492.85
492.66
492.81
493.03
492.83
493.01
493.19
493.38
493.21
493.36
493.23
493.68
493.63
493.33
493.6
493.71
493.61
493.69
493.62
494.02
493.69
493.63
494.03
494.01
494.03
494.01
494.04
494.34
494.09
493.96
494.43
494.01
494.04
494.01
494.38
494.05
494.34
494.1
494.3
494.13
494.26
494.16
494.24
494.53
493.92
494.11
494.28
494.49
494.3
494.13
494.27
494.49
493.95
494.42
494.36
494.41
494.37
494.06
494.68
494.49
493.96
494.42
494.37
494.4
494.04
494
494.38
494.39
494.39
494.38
494.4
494.38
494.4
494.37
494.41
494.37
494.41
494.37
494.41
494.37
494.41
494.71
494.8
494.71
494.46
494.32
494.79
494.38
494.4
494.72
494.79
494.73
494.78
494.39
495.07
494.83
494.34
495.11
494.79
494.72
494.44
494.68
495.17
494.74
495.11
494.79
494.72
495.13
495.11
494.79
495.06
494.84
495.02
495.22
495.03
495.21
495.05
495.19
495.06
495.18
495.41
495.22
495.37
495.6
495.39
495.58
495.41
495.57
495.08
495.16
495.43
495.2
495.39
495.24
495.36
495.61
495.04
495.2
495.4
495.23
495.03
495.21
495.39
495.92
495.12
495.46
495.52
495.46
495.52
495.46
495.87
495.5
495.83
495.89
495.84
495.88
495.85
495.87
495.86
495.86
495.86
496.2
495.92
496.15
495.97
495.76
496.3
496.16
496.29
496.17
495.94
496.12
495.98
495.74
496.31
495.81
495.91
496.16
496.29
496.17
495.94
496.13
496.32
495.8
496.25
495.86
496.2
496.26
496.2
496.26
496.2
496.26
496.2
496.26
496.2
496.26
496.2
496.26
496.55
496.3
496.16
496.3
496.51
496.68
496.17
496.62
496.57
496.62
496.58
496.62
496.92
497.01
496.93
496.66
496.54
497
496.6
496.94
496.99
496.95
496.64
496.55
496.64
496.56
496.63
496.91
497.37
497.31
497.36
497.32
497.36
497.32
497.7
497.37
497.3
497.72
497.7
497.72
498.05
497.77
497.66
498.1
498.06
498.1
498.07
498.1
498.07
498.09
497.73
498.04
498.12
498.05
498.12
498.05
498.46
498.1
498.06
498.1
498.07
498.1
498.07
498.09
498.42
498.14
498.38
498.53
498.39
498.52
498.05
498.11
498.4
498.5
498.41
498.14
498.37
498.53
498.39
498.51
498.05
498.45
498.11
498.4
498.51
498.4
498.51
498.75
498.55
498.71
498.24
498.62
498.67
498.25
498.64
498.63
498.66
498.61
498.68
498.94
499.09
498.59
499.4
498.68
498.96
498.71
498.93
499.08
499.31
499.46
499.68
499.49
499.65
499.51
499.97
499.59
499.91
500
499.9
500
499.89
500.01
500.24
500.06
500.19
500.46
499.85
500.4
500.25
500.75
500.66
500.75
500.31
500.7
500.35
500.65
500.74
500.66
500.73
500.67
500.72
501.03
501.12
500.69
501.05
501.1
500.7
500.7
501.05
501.11
501.05
501.11
500.7
501.05
501.1
501.06
501.09
501.06
501.09
501.07
500.74
501.02
501.13
501.03
501.12
501.04
501.14
501.38
501.17
501.34
501.21
501.31
501.58
501.34
501.56
501.36
501.19
501.33
501.56
501.71
501.59
501.68
501.96
501.36
501.88
501.79
501.86
501.81
501.85
501.82
502.18
502.24
502.17
502.25
502.17
502.26
501.81
502.21
501.85
502.17
502.24
502.19
502.23
502.2
502.21
502.21
502.2
502.57
502.25
502.18
502.58
502.6
502.58
502.6
502.57
502.96
502.61
502.57
502.96
502.98
502.6
502.94
502.99
502.95
502.63
502.9
503.38
502.97
502.96
502.97
502.96
502.98
502.96
503.33
503.36
503.34
503
503.29
503.4
503.3
503.03
503.26
503.43
503.28
503.41
503.64
503.81
503.3
503.39
503.67
503.78
503.68
503.42
503.28
503.41
503.29
503.39
503.31
503.74
503.37
503.33
503.72
503.73
503.72
503.73
503.73
503.73
503.73
503.73
503.73
503.72
503.73
503.72
503.73
503.72
504.09
503.77
504.04
503.82
504
503.86
503.61
504.19
503.68
503.77
504.04
504.17
504.41
504.21
504.02
504.19
504.03
504.17
504.05
503.81
504.01
503.84
503.98
504.23
504
504.2
504.02
504.18
504.04
503.81
504.01
504.2
504.03
504.18
504.05
504.51
504.12
504.45
504.53
504.09
504.13
504.09
504.49
504.49
504.5
504.48
504.5
504.12
504.46
504.16
504.42
504.55
504.43
504.54
504.45
504.53
504.82
504.56
504.78
504.95
504.8
504.58
504.41
504.92
504.84
504.55
504.8
504.94
504.82
504.92
504.83
504.91
504.84
504.89
504.86
504.88
505.22
504.93
504.83
505.27
505.25
505.26
505.25
505.25
505.26
504.89
505.21
504.93
505.17
504.97
504.78
505.31
505.21
504.94
505.17
505.33
504.83
504.91
505.2
504.95
504.81
504.93
505.18
504.97
504.79
504.59
504.75
504.98
504.42
504.2
504.03
504.18
504.4
503.86
503.97
504.24
503.99
503.86
503.26
503.78
504.04
504.17
504.06
504.15
504.07
504.14
504.09
504.48
504.51
504.47
504.87
504.52
505.18
505.32
505.2
505.66
505.62
505.65
505.99
505.69
505.59
506.03
505.66
505.62
505.66
505.61
506.02
505.66
505.62
505.65
505.98
506.06
505.64
505.99
506.05
506.35
506.46
506
506.05
506
506.4
506.05
506.35
506.1
505.95
506.08
506.32
506.12
505.93
506.46
506
506.04
506
506.04
506.37
506.44
506.37
506.43
506.74
507.2
506.8
507.14
507.57
507.55
507.57
507.19
507.52
507.24
507.47
507.64
507.49
507.99
507.91
507.98
508.28
508.39
508.29
508.74
508.71
508.73
509.08
508.78
509.03
509.19
509.05
509.17
509.06
509.52
508.76
509.05
509.54
508.75
509.07
509.15
509.08
509.14
509.09
509.14
509.09
509.49
509.51
509.13
509.1
509.48
509.52
509.12
509.47
509.17
509.42
509.21
509.39
509.61
509.41
509.59
509.79
509.99
509.81
509.97
510.19
510.37
509.84
510.3
510.27
510.65
510.7
510.28
511.01
510.75
510.61
510.73
510.99
511.13
511
510.75
510.97
511.15
510.99
511.13
511.01
511.48
511.07
511.42
511.5
511.78
512.28
512.57
512.7
513.31
513.54
513.32
513.53
513.7
515.05
514.98
515.79
515.83
515.79
516.2
516.22
516.2
516.22
516.2
516.59
516.63
516.59
516.25
516.54
516.67
516.18
516.24
516.56
516.29
516.51
516.33
516.47
516.74
516.49
516.72
516.51
516.7
516.9
516.74
516.87
517.14
516.89
517.12
516.91
517.1
516.93
517.08
517.32
517.49
517.72
517.53
517.68
517.93
517.71
517.91
518.11
518.31
517.76
518.24
518.2
518.22
518.21
518.21
518.6
518.26
518.56
518.3
518.14
518.28
518.16
518.26
518.18
518.25
518.19
517.86
518.15
517.9
517.37
517.82
517.43
517.38
517.81
517.43
517.39
517.42
517.4
517.41
517.04
517.35
517.47
516.98
517.04
516.98
517.41
517.03
516.99
517.4
517.43
517.02
517.37
517.44
517.38
517.06
517.34
517.85
517.03
517.36
517.46
517.37
517.45
517.37
517.45
517.37
517.45
517.38
517.44
517.38
517.44
517.39
517.43
517.39
517.43
517.39
517.43
517.4
517.42
517.4
517.79
517.46
517.74
517.51
517.32
517.5
517.33
517.49
516.97
517.42
517.4
517.42
517.4
517.42
517.03
517.37
517.45
517.37
517.45
517.38
517.44
517.38
517.81
517.44
517.38
517.44
517.01
517.38
517.44
517.39
517.06
517.34
517.48
517.35
517.84
517.41
517.41
517.79
517.83
517.42
517.77
518.23
517.46
517.74
517.88
517.76
517.86
517.77
517.85
518.9
519.89
520.16
520.31
520.17
520.29
520.19
520.28
520.2
519.89
520.15
520.31
520.17
519.92
520.13
520.71
520.21
520.26
520.22
520.25
520.6
520.3
520.56
520.72
520.58
520.32
520.16
520.3
520.56
520.34
520.14
520.32
519.79
520.25
520.23
520.24
520.24
520.23
520.25
520.22
520.25
519.84
519.83
520.21
520.26
519.83
520.21
519.88
519.79
519.87
519.8
520.24
520.24
520.23
520.25
519.85
520.19
519.9
519.77
520.26
519.84
519.82
519.84
520.2
520.28
520.2
520.27
520.2
520.27
520.2
520.27
520.59
520.32
519.78
520.26
520.22
520.25
520.22
520.63
520.66
521.01
520.71
520.58
520.7
520.59
520.69
520.6
521.07
520.66
521.01
520.71
520.58
521.08
520.65
520.64
520.65
520.64
520.65
520.64
520.65
520.64
520.65
521.02
520.7
520.97
521.13
520.98
521.12
520.99
521.11
521.37
521.54
521.01
521.09
521.01
521.46
521.08
521.03
521.07
521.03
521.45
521.46
521.07
521.41
521.51
521.41
521.5
521.42
521.49
521.04
521.44
521.86
521.49
521.43
521.49
521.43
521.48
521.43
521.48
521.44
521.1
521.39
521.52
521.4
521.51
521.41
521.5
521.04
521.44
521.48
521.44
521.48
521.44
521.1
521.39
521.53
521.39
521.52
521.4
521.51
521.41
521.88
521.85
521.5
521.8
521.93
521.43
521.86
521.49
521.81
521.92
521.44
521.86
521.49
521.81
521.54
521.38
521.53
521.77
521.57
521.73
521.99
521.75
521.59
521.72
522
521.36
521.54
521.38
521.53
521.78
521.56
521.74
521.6
521.33
521.57
521.36
521.92
521.82
521.53
521.78
521.56
521.75
521.97
521.77
521.95
521.42
521.87
521.87
521.86
521.88
521.47
521.45
521.84
521.9
521.83
521.9
521.83
522.29
521.88
522.24
522.3
522.25
522.29
522.64
522.34
522.6
522.38
522.57
522.41
522.15
522.38
522.18
522.36
522.2
522.34
522.22
522.7
522.67
522.69
522.68
523.06
523.13
523.06
523.51
523.49
523.52
523.49
523.52
523.49
523.53
523.1
523.09
523.1
523.1
523.09
523.1
523.09
523.1
523.09
523.1
522.7
523.05
522.75
523
523.18
523.02
523.16
523.03
523.15
523.04
522.76
523
522.8
523.34
522.89
522.88
523.3
522.91
522.88
523.27
523.72
523.31
523.3
522.91
523.65
523.38
523.62
523.41
523.59
523.43
523.57
523.84
523.98
523.48
523.53
523.88
523.57
524.22
524.04
523.81
524.01
523.84
523.99
523.86
523.96
524.26
524
524.23
524.03
524.2
524.06
523.79
524.41
524.26
524
523.84
523.98
524.25
524.01
523.84
523.98
523.86
523.96
523.88
523.94
523.9
523.54
523.86
523.96
523.88
523.56
523.84
523.98
523.86
523.58
523.83
523.61
523.8
524.02
523.82
523.61
523.79
523.64
523.77
523.67
524.13
524.13
523.35
524.03
523.82
523.62
523.79
524.03
524.21
524.05
523.8
524.02
523.83
523.61
523.8
523.63
523.78
523.66
523.37
523.62
523.41
523.59
523.43
523.95
523.9
523.55
523.48
523.53
523.49
523.51
523.51
523.5
523.52
523.49
523.91
523.53
523.49
523.52
523.5
523.51
523.51
523.5
523.51
523.49
523.9
523.54
523.47
523.91
523.54
523.85
523.98
523.47
523.92
523.53
523.87
523.96
523.88
523.95
523.5
523.89
524.33
523.56
523.84
523.61
523.79
523.65
523.76
523.68
523.34
523.65
523.75
524.07
523.78
524.04
523.8
524.02
523.82
524
523.84
523.98
523.86
523.58
523.44
523.56
523.45
523.55
523.09
523.1
523.48
523.15
523.05
523.13
523.06
522.74
522.26
522.29
522.27
521.9
522.22
522.32
522.23
522.31
522.25
521.92
522.2
521.96
522.16
521.99
522.13
522.02
521.72
521.99
521.37
521.91
522.21
521.57
521.74
521.6
521.71
521.63
521.69
521.65
521.67
522.04
521.71
521.63
521.69
522.02
521.35
521.55
521.38
521.15
521.35
521.17
521.32
521.57
520.98
520.73
520.57
520.7
520.6
520.3
520.57
520.33
520.54
520.36
520.51
520.38
520.11
519.97
519.72
519.55
519.69
519.57
519.3
519.91
519.39
519.45
519.79
519.86
519.81
519.47
519.4
519.45
519.04
519.37
519.48
518.99
519.43
519.04
519.01
519.02
519.03
519.01
519.04
519
518.67
518.57
518.67
518.19
518.61
518.62
518.62
518.61
519
518.66
518.58
518.65
518.96
518.7
518.54
519.06
518.61
518.62
518.99
518.3
518.51
518.71
518.91
518.75
518.87
519.16
518.89
519.52
519.35
519.12
519.31
519.53
518.95
519.08
519.34
519.12
518.93
519.11
519.32
519.52
519.34
519.5
519.36
519.49
519.75
519.9
519.77
519.89
519.78
519.5
519.74
520.29
519.81
519.84
519.82
519.84
519.83
519.83
520.21
520.26
520.22
520.25
520.23
520.24
520.61
519.91
520.14
520.33
520.16
519.93
519.74
520.29
519.81
519.84
520.2
519.89
520.16
519.93
519.74
520.29
520.2
520.27
520.59
520.31
520.17
520.3
520.56
520.34
520.15
520.31
520.17
520.3
520.57
520.33
520.53
520.74
520.93
521.16
520.96
521.13
520.6
521.06
521.43
521.1
521.39
521.14
521.35
521.93
522.19
521.97
522.16
522
521.75
521.59
521.34
521.94
521.42
521.48
521.44
521.09
521.02
521.07
521.41
521.49
521.43
521.86
522.26
522.28
522.27
521.89
521.85
521.5
521.42
521.49
521.06
520.66
520.25
520.22
520.26
519.46
519.02
518.64
518.22
518.2
518.23
517.45
517.75
517.87
518.14
517.91
518.1
518.32
518.12
518.67
519.32
519.52
520.1
521.88
522.62
523.13
523.45
523.94
524.29
524.75
524.74
524.36
524.69
525.17
525.14
525.17
525.15
525.16
525.15
525.15
525.54
525.21
525.11
525.2
525.12
525.19
524.74
524.35
524.69
524.4
524.26
524.39
523.89
524.32
524.34
523.93
523.9
523.93
523.91
523.54
523.47
523.53
523.48
523.14
522.67
522.32
522.24
521.93
522.19
523.11
523.08
523.49
523.52
523.49
523.52
523.49
524.29
524.36
524.3
524.36
524.69
525.17
525.14
525.17
525.53
525.22
525.1
525.21
525.49
525.64
525.12
525.57
525.96
525.62
526.29
526.11
526.26
526.92
526.34
527.23
527.63
527.67
527.25
527.22
527.64
527.66
527.64
527.26
526.82
527.2
526.88
527.14
527.7
527.21
527.26
527.21
527.25
527.21
527.25
527.21
527.64
527.27
527.2
527.26
527.21
527.25
527.21
527.25
527.22
527.25
527.61
527.3
527.17
527.29
527.18
527.28
527.58
527.32
527.53
527.37
527.5
527.4
526.69
527.32
527.16
527.3
527.17
527.28
527.57
527.33
527.53
527.75
527.17
527.67
527.63
527.66
528.03
527.71
527.99
528.14
528
528.51
528.08
528.05
528.08
528.05
528.09
528.04
528.09
528.04
527.7
527.59
527.7
527.6
527.7
527.21
527.64
527.65
527.26
527.59
527.7
527.6
528.09
527.66
527.64
527.66
527.64
527.65
527.26
527.6
527.7
527.21
527.64
527.66
527.64
527.27
527.58
527.71
527.59
527.7
527.6
527.69
527.61
527.69
527.62
527.68
527.62
527.67
527.63
528.06
527.69
527.61
527.68
527.62
527.29
527.57
527.73
527.19
527.27
527.2
527.26
527.2
527.65
527.65
527.26
527.6
527.69
527.22
527.63
527.67
527.24
527.61
527.29
527.56
527.73
527.58
527.33
527.15
526.92
526.72
526.9
526.35
526.83
526.42
526.77
526.48
526.71
526.53
526.67
526.57
525.85
526.49
526.31
526.48
526.5
526.29
526.51
526.29
526.51
526.28
526.52
526.28
526.13
525.84
526.51
525.9
525.29
525.02
525.29
525.03
525.28
525.04
525.27
525.05
525.25
525.06
525.24
525.46
525.67
525.86
526.1
526.27
526.52
526.29
526.5
526.7
526.53
526.28
526.5
526.31
526.86
526.39
526.79
526.46
526.33
526.47
526.33
526.86
526.38
526.81
526.81
526.44
526.74
526.89
526.73
526.9
526.34
526.85
527.17
527.3
527.55
527.75
527.16
527.69
527.6
527.7
527.21
527.65
528.03
528.1
527.64
527.67
527.63
527.67
528.01
527.74
527.95
528.18
527.96
528.17
527.97
528.16
527.59
528.1
528.04
528.1
528.04
528.1
528.04
528.09
528.04
528.09
528.04
528.09
528.05
528.09
528.44
528.14
528
528.52
528.46
528.51
528.08
528.06
528.47
528.11
528.03
528.49
528.49
528.48
528.1
529.2
529.44
529.21
529.82
529.28
529.76
529.73
529.37
529.67
529.82
529.67
529.81
529.68
529.81
529.68
529.8
530.08
529.86
530.03
529.9
529.99
530.33
530.02
529.91
529.98
530.34
530.4
530.37
529.98
530.73
530.46
530.31
530.43
530.74
530.06
530.26
530.48
530.69
530.11
530.61
530.58
530.59
530.98
530.64
530.94
531.07
530.96
530.66
530.92
531.48
531.39
531.07
530.96
531.45
531.43
531.04
531.39
531.47
531.4
531.06
531.36
531.49
531.78
531.53
531.35
531.51
531.37
531.48
531.4
531.86
531.86
531.45
531.82
532.28
531.89
531.82
531.9
532.21
532.36
531.81
532.3
531.87
532.25
532.31
532.26
532.3
532.67
532.35
532.23
532.33
532.64
532.37
532.6
532.81
532.62
532.39
532.58
532.43
532.95
532.91
532.92
533.33
532.96
532.89
532.94
533.31
532.97
532.88
533.35
533.75
532.99
533.26
533.42
533.29
533
533.25
533.03
533.22
533.46
533.65
533.49
533.62
533.51
533.2
533.47
533.24
533.44
533.27
533.02
533.23
533.45
533.26
533.42
533.69
533.45
533.65
533.48
533.63
533.51
533.6
533.93
533.64
533.89
533.67
533.46
533.64
533.49
533.62
533.51
534
533.99
533.58
533.94
534.02
533.96
534.01
533.98
533.99
533.99
533.98
534
533.97
534.01
533.97
534.01
533.96
534.02
533.96
534.42
534.01
534.37
534.06
534.32
534.1
534.28
534.54
534.31
534.52
534.33
534.1
534.29
534.53
534.31
534.51
534.33
534.09
533.89
534.47
534.37
534.46
534.38
534.44
534.39
534.43
534.4
534.42
534.81
534.48
534.76
534.52
534.72
534.96
534.75
534.93
534.77
534.92
534.78
534.5
534.74
534.94
534.76
534.92
534.78
534.9
534.8
534.89
534.81
534.87
534.82
535.26
534.89
535.2
535.35
534.8
534.89
534.8
534.89
535.2
534.94
535.15
535.39
534.77
535.32
534.83
535.26
535.29
535.26
535.29
535.26
535.29
535.26
535.28
535.67
535.34
535.61
535.39
535.17
535.37
535.18
535.76
535.66
535.35
535.61
535.79
535.22
535.72
535.69
535.72
535.7
535.71
535.7
536.11
535.76
535.65
535.76
536.06
535.81
535.61
536.2
536.08
535.79
535.63
536.18
536.1
535.77
535.65
536.16
535.71
536.1
536.17
536.1
536.57
536.56
536.17
536.5
536.23
536.05
536.21
536.06
535.8
536.01
536.25
536.03
535.83
535.99
535.87
535.95
536.3
535.98
536.28
536.41
536.71
536.03
536.23
536.46
536.26
536.42
536.3
535.99
536.27
536.42
536.3
536.39
536.72
536.43
536.29
536.4
536.71
536.04
536.62
536.53
536.6
536.55
536.18
536.51
536.21
536.47
536.65
536.5
536.62
536.52
536.6
536.95
537.04
536.97
537.02
536.99
537
536.6
536.93
537.07
536.53
537.01
536.98
537.02
536.97
537.03
536.97
537.03
536.96
537.04
536.56
536.98
537.01
536.99
537
537
537
537
536.99
537.01
536.99
537.42
537.04
536.96
537.03
536.97
537.03
536.98
537.02
537.39
537.07
537.34
537.52
537.35
537.1
537.31
537.14
537.27
537.18
536.84
537.55
536.92
537.07
537.34
537.11
536.9
537.09
537.32
537.13
536.88
537.51
537.36
537.49
537.38
537.07
537.34
537.52
537.36
537.5
537.37
537.49
537.39
537.47
537.4
537.46
537.41
537.45
537.42
537.44
537.43
537.43
537.44
537.02
537.39
537.07
536.94
537.46
537.01
536.99
537.42
537.44
537.02
536.97
537.43
537.03
537.38
537.08
536.93
537.47
537.4
537.46
537.41
537.85
537.48
537.39
537.88
537.85
537.88
537.85
538.29
538.31
538.29
538.3
538.3
538.3
538.3
538.3
538.3
538.7
538.77
538.3
538.71
538.76
538.71
538.35
538.66
538.4
538.61
538.44
538.57
538.88
538.6
538.46
538.16
538.83
538.65
538.41
538.6
538.85
538.63
538.83
538.65
538.81
539.07
538.45
538.98
538.94
538.55
538.9
538.58
539.28
539.08
538.84
539.05
538.88
539.02
538.9
538.59
539.27
538.68
538.78
539.1
538.82
539.07
538.85
538.63
539.23
539.13
538.8
539.09
539.24
539.11
539.22
539.54
539.66
539.16
539.58
540.05
540.04
540.06
539.62
540.01
539.66
539.56
539.64
539.99
539.68
539.95
540.13
539.97
540.11
539.99
540.09
539.61
540.01
540.08
540
540.09
539.59
539.62
539.59
540.04
540.05
539.64
539.98
540.11
539.98
540.1
539.58
540.04
540.05
539.64
539.98
540.1
539.99
540.5
540.05
540.44
540.52
540.45
540.1
539.99
540.5
540.05
540.03
540.46
540.1
540
540.09
539.6
540.02
540.06
540.03
540.06
540.03
540.05
540.04
540.46
540.5
540.05
539.63
539.58
538.82
537.04
536.16
535.71
535.7
535.71
535.3
534.05
532.34
531.04
529.81
529.3
528.57
527.24
526.84
526.4
525.62
524.36
524.3
523.97
523.48
523.91
523.54
523.47
523.54
523.47
523.15
523.04
522.77
522.23
522.32
522.61
522.37
521.81
522.3
522.25
522.29
522.26
521.91
521.83
521.9
521.83
521.9
521.46
521.45
521.08
520.64
520.65
520.64
520.27
520.58
520.7
520.21
519.89
519.4
519.07
518.97
518.69
518.55
518.68
518.56
517.93
518.08
518.34
518.1
517.95
517.69
518.3
518.14
518.29
518.15
518.27
518.16
518.26
518.18
518.25
518.19
517.87
518.14
517.91
518.1
517.57
517.64
517.97
517.67
517.94
517.7
517.54
517.67
517.94
517.7
517.91
517.72
517.89
517.37
517.44
517.39
516.68
517.3
517.51
516.95
517.43
516.65
516.56
516.66
516.56
516.66
516.55
516.67
516.55
516.67
516.55
516.67
516.18
516.61
516.6
516.62
516.6
516.62
516.59
516.63
516.59
516.63
516.21
516.58
516.64
516.21
516.2
516.22
516.57
516.27
516.15
516.64
516.58
516.26
516.53
516.31
516.49
516.35
516.07
516.71
516.15
516.27
516.16
516.25
516.17
516.24
516.55
516.66
516.56
516.65
516.2
516.58
516.64
516.21
516.21
516.2
516.22
516.57
516.28
516.52
516.33
516.47
516.74
516.48
517.1
516.55
516.67
516.56
516.66
516.56
516.66
516.56
516.65
516.57
517.02
516.63
516.22
516.94
516.7
516.52
517.06
516.59
516.63
516.59
517
516.65
516.57
516.64
516.58
516.64
516.95
516.69
516.53
517.05
516.6
516.99
517.03
516.99
517.02
517
517.39
517.05
516.6
516.99
517.02
517
516.65
516.95
517.07
516.96
516.69
516.54
516.67
516.55
516.66
516.56
516.65
516.57
516.64
516.58
516.64
516.96
516.31
516.49
516.72
516.51
516.7
516.53
516.68
516.55
516.29
516.51
516.7
516.16
516.25
516.17
516.24
516.18
516.23
516.2
516.22
516.21
516.21
516.21
516.57
516.65
516.2
516.6
516.62
516.6
516.24
516.56
516.28
516.15
516.26
516.16
515.88
516.12
515.17
514.5
514.35
513.73
513.54
512.96
512.72
512.93
512.76
512.9
512.78
512.5
512.75
512.53
512.73
512.56
512.34
512.16
511.95
511.76
511.19
510.95
511.16
510.61
510.36
510.22
509.97
510.19
509.64
509.38
509.61
509.41
509.22
509.38
509.24
509
508.85
508.97
508.87
508.59
508.48
507.49
507.26
507.46
506.93
506.67
506.54
506.29
506.15
505.91
506.12
505.58
505.68
505.25
504.9
504.86
504.17
502.65
501.47
500.74
499.96
499.95
499.6
499.56
499.23
498.83
498.82
499.19
499.21
499.2
498.85
499.85
499.69
500.17
500.46
500.2
500.44
500.58
500.81
500.95
500.49
500.88
501.61
501.67
501.98
501
500.79
500.97
500.82
500.95
501.19
500.28
500.72
500.69
500.7
500.71
500.69
500.72
500.68
501.07
500.73
501.03
501.12
501.05
500.75
501.01
501.14
501.02
500.77
500.99
501.16
501.01
501.14
501.02
501.12
501.04
500.76
501
501.5
501.07
501.08
501.08
501.08
501.08
501.07
501.09
501.06
501.44
501.11
501.4
501.15
501.01
501.14
501.37
501.18
501.34
501.21
500.96
501.54
501.03
501.12
501.04
501.11
501.4
501.15
501.72
501.58
501.69
501.96
501.71
501.59
501.69
501.96
502.07
502.34
502.09
502.31
502.47
503.04
502.9
502.67
502.87
502.7
502.84
502.72
502.82
503.1
502.85
503.07
503.23
503.09
502.86
503.06
502.89
503.39
503.32
503.37
503.33
503.71
503.75
503.7
504.12
504.09
504.13
504.09
504.14
504.43
504.19
504.02
504.55
504.43
504.19
504.03
504.19
504.03
504.18
504.04
504.18
504.04
504.53
504.1
504.47
504.5
504.48
504.15
504.43
504.55
504.44
504.54
504.8
504.58
504.76
504.62
504.37
504.6
504.75
504.99
505.12
505.38
504.79
505.66
505.62
505.3
505.57
505.34
505.53
505.73
505.91
506.12
505.57
506.05
505.99
505.69
505.95
506.08
506.32
506.48
506.34
506.82
506.76
506.81
507.13
506.86
507.09
506.89
507.06
507.28
507.44
508.03
508.23
508.07
508.2
508.46
508.59
508.48
508.57
508.5
508.19
508.83
508.63
508.8
508.66
508.78
508.32
508.71
508.74
508.34
508.7
508.74
508.71
509.09
508.78
508.67
508.78
508.67
508.78
508.67
508.78
508.67
508.78
508.67
508.78
509.03
509.19
509.04
509.19
509.04
509.18
509.05
509.17
509.06
509.17
509.06
509.16
509.07
509.15
508.72
509.46
509.18
509.05
509.18
509.05
509.17
508.7
508.75
508.7
508.75
508.7
508.74
508.71
509.1
509.12
508.74
509.07
509.16
509.07
508.79
509.02
509.2
508.67
509.13
509.09
508.77
509.04
509.18
509.05
509.17
509.06
509.52
509.48
509.52
509.49
509.15
509.44
509.56
509.45
509.55
509.46
509.91
510.24
509.95
510.2
510.36
510.21
509.98
509.81
510.33
510.24
510.32
510.25
509.95
510.21
510.35
510.22
510.34
510.23
509.96
510.19
510.36
510.57
510.03
510.13
510.42
510.52
510.45
510.13
510.78
510.58
510.39
510.55
510.78
510.21
510.7
510.65
510.69
510.66
510.68
510.68
510.66
511.05
510.71
510.65
511.06
511.08
510.68
510.67
511.04
510.73
510.61
511.1
511.03
510.74
510.98
511.15
510.98
511.15
510.62
511.09
511.04
511.09
511.04
511.09
511.04
511.45
511.09
511.4
511.5
511.05
511.08
511.42
511.49
511.06
511.43
511.85
511.49
511.79
511.53
511.39
511.52
511.76
511.56
511.72
511.6
511.32
511.58
511.35
511.92
511.42
511.49
511.43
511.48
511.8
511.53
511.76
511.93
511.41
511.86
511.84
511.86
511.84
512.22
512.27
512.22
511.9
512.17
512.32
512.54
512.36
512.13
512.35
512.15
512.7
512.21
512.27
512.58
512.32
512.17
512.31
512.18
512.3
511.83
512.23
512.25
512.23
512.25
512.23
512.26
512.23
512.26
511.86
512.21
511.91
512.16
511.95
511.76
512.3
512.19
512.65
512.62
512.65
512.26
512.22
512.63
512.27
512.22
512.63
512.28
512.21
512.28
512.21
512.64
512.63
512.65
512.63
512.65
512.62
512.65
512.62
512.65
512.25
512.6
512.67
512.61
512.3
512.19
512.65
512.26
512.23
512.62
512.65
512.63
512.28
512.21
512.64
512.27
512.58
512.69
512.59
512.68
512.59
512.31
512.54
512.36
512.14
512.34
512.52
512.74
512.54
512.73
512.55
512.35
512.15
512.69
512.59
512.68
512.23
512.62
512.66
512.62
512.66
512.61
512.66
512.61
512.66
512.61
512.66
512.61
512.66
512.61
513.03
513.03
512.67
512.6
512.67
512.97
512.72
512.56
513.08
512.99
512.71
512.57
513.07
513
512.7
512.95
513.11
512.59
513.04
512.65
512.99
513.07
512.99
513.07
513
513.06
513
512.69
512.95
512.74
512.91
512.77
512.88
513.17
512.9
512.79
513.23
513.23
512.48
513.15
513.29
513.55
512.95
513.1
512.97
513.09
512.98
513.44
513.42
513.43
513.43
513.42
513.43
513.42
513.44
513.04
513.39
513.46
513.4
513.45
513.04
513.38
513.47
513.38
513.47
513.39
513.47
513.39
513.47
513.39
513.46
513.39
513.83
513.81
513.83
513.44
513.78
513.86
513.79
513.49
513.74
513.9
513.39
513.83
513.81
514.2
514.24
514.2
514.61
514.25
514.56
514.3
514.15
514.29
513.79
514.22
514.59
514.27
514.54
514.31
514.5
514.72
514.15
514.65
514.58
514.64
514.22
514.58
514.65
514.58
514.28
514.53
514.7
514.54
514.32
514.49
514.73
514.51
514.71
514.52
514.7
514.54
514.69
514.92
514.73
514.51
514.71
514.53
514.69
514.92
514.73
514.51
514.71
514.9
514.74
514.5
515.09
514.95
514.7
514.54
514.68
514.56
515.03
514.63
514.59
514.64
514.59
514.64
514.21
514.6
514.26
514.18
514.25
514.2
514.23
514.21
513.86
513.79
513.47
513.02
512.67
512.24
511.87
511.1
510.66
510.32
509.52
509.13
508.73
508.36
507.95
507.95
507.95
507.59
507.53
507.96
507.22
507.5
507.62
507.51
507.25
507.47
507.29
507.43
507.32
507.4
507.71
507.43
508.04
507.87
508.02
508.61
508.83
508.99
509.22
509.38
509.25
508.99
509.59
509.07
509.15
509.44
509.19
509.77
509.64
509.38
509.61
509.77
509.64
509.38
509.61
509.77
509.64
509.38
509.61
509.77
510
509.8
509.97
509.83
509.95
510.21
510.34
509.87
510.27
510.3
510.26
510.31
510.25
510.68
510.3
510.63
510.7
511.01
510.74
510.98
510.78
510.95
510.81
510.92
511.56
511.36
511.9
512.17
511.94
512.14
511.97
512.11
512
512.09
512.75
512.17
512.67
512.61
513.02
513.04
512.65
513
513.05
513.01
513.04
512.66
512.61
512.67
512.6
513.04
512.65
512.99
512.7
512.58
512.68
512.6
512.3
512.19
512.29
512.2
512.28
512.21
512.27
512.22
512.26
511.86
511.83
511.87
511.83
511.87
511.46
511.82
511.51
511.41
511.87
511.83
511.5
513.25
514.32
514.12
514.67
514.56
514.66
514.2
514.23
514.21
514.22
513.85
513.43
513.79
513.85
513.43
513.42
513.8
513.47
513.38
513.46
513.02
513.04
513.39
513.45
513.4
513.08
513.35
513.13
513.31
513.53
513.33
513.52
512.98
513.45
513.04
512.65
512.99
513.07
513
513.06
512.64
513
512.7
512.58
512.69
512.22
512.63
512.27
512.22
512.27
511.86
512.58
512.33
512.16
512.32
511.81
512.26
511.86
512.2
512.28
511.84
511.86
512.21
512.27
512.21
512.27
512.22
512.27
512.22
511.9
512.17
512.31
512.18
511.93
512.14
512.34
512.16
512.32
512.17
511.94
512.13
511.98
512.46
512.43
512.07
512.4
511.74
512.32
512.18
512.3
512.2
511.92
512.16
512.32
511.81
512.25
512.24
512.24
512.25
511.86
512.21
511.91
512.17
512.31
512.19
511.92
512.15
511.96
512.12
511.99
512.09
512.38
512.12
512.35
512.15
512.32
512.17
512.3
512.19
512.28
512.21
512.26
511.86
511.83
512.24
511.88
512.56
512.33
512.16
512.31
512.19
512.29
512.2
512.27
512.59
512.31
512.18
512.29
512.2
512.28
512.22
512.63
512.65
512.25
512.6
512.66
512.62
512.65
512.63
512.64
512.64
512.63
512.64
512.26
512.23
512.62
512.66
512.62
512.66
512.25
512.61
513.03
513.04
512.66
512.99
513.44
513.05
513.38
513.47
513.02
513.41
513.07
513.36
513.12
513.32
513.52
513.34
513.51
513.35
513.13
513.31
513.53
513.33
513.51
513.35
513.5
513.73
513.54
513.32
513.52
513.34
513.5
513.36
513.49
513.01
513.42
513.8
513.84
513.44
513.41
513.81
513.46
513.4
513.45
513.4
513.08
513.36
513.49
513.37
513.11
512.6
512.67
512.61
512.3
512.2
512.28
512.57
511.96
512.12
511.99
511.35
510.82
510.18
510.01
509.78
509.63
509.39
508.52
507.81
508.07
507.48
507.27
507.45
507.66
507.48
507.28
507.09
507.25
507.11
507.59
507.54
507.57
507.92
507.61
507.52
507.59
507.54
507.58
507.55
507.93
507.98
507.56
507.93
507.96
507.94
507.95
507.95
507.94
507.6
507.52
507.97
507.57
507.92
507.61
507.52
507.96
507.94
507.59
507.9
507.63
507.86
507.67
507.46
507.65
507.48
507.63
507.5
507.62
507.88
507.65
507.48
507.64
507.5
507.62
507.51
507.6
507.89
507.64
507.49
507.63
507.51
507.61
507.52
507.6
507.53
507.23
507.49
507.27
507.46
507.66
507.48
507.64
507.49
507.26
507.46
507.66
507.84
507.69
507.45
507.66
507.83
508.05
508.22
508.44
508.24
508.42
508.27
508.4
508.28
508.38
508.3
508.36
508.68
508.4
508.64
508.8
508.66
508.78
509.04
509.18
508.7
508.74
509.07
508.78
508.67
508.77
508.69
509.11
509.12
508.74
509.07
509.15
509.09
508.77
509.05
509.17
508.7
508.74
509.07
508.78
509.04
508.82
509
509.21
508.66
508.78
508.68
508.76
509.05
508.8
509.02
508.84
508.99
508.87
508.6
509.2
508.68
508.77
508.69
508.75
509.07
508.79
508.67
509.13
508.74
508.71
509.1
508.76
509.06
508.8
509.02
509.19
508.68
508.76
508.69
508.75
509.07
508.79
509.03
508.83
508.63
509.17
509.07
509.15
508.72
508.73
509.09
509.13
508.74
508.71
508.74
508.71
509.11
508.75
509.06
509.16
509.07
508.79
509.03
509.55
508.74
509.07
509.52
509.49
509.88
509.17
509.42
509.58
509.44
509.2
509.4
509.6
509.42
509.22
509.74
510.03
509.04
509.9
509.89
509.53
509.84
509.57
509.8
509.61
