388.87
388.82
388.66
388.8
388.9
389.01
388.92
388.78
388.91
388.79
388.9
388.8
388.89
388.81
388.88
388.82
388.87
388.83
389.08
388.86
388.83
389.29
389.1
389.05
389.09
389.06
389.09
389.07
389.08
389.28
389.32
389.29
389.31
389.3
389.3
389.09
389.27
389.33
389.27
389.33
389.06
389.3
389.3
389.52
389.75
389.34
389.48
389.58
389.27
389.55
389.51
389.55
389.51
389.54
389.73
389.79
389.52
389.75
389.76
389.75
389.76
389.76
389.76
389.76
389.76
389.76
389.97
390
389.76
389.97
390
389.97
390
389.97
390.21
390.22
390
390.19
390.03
390.16
390.26
390.17
390.26
390.17
390.25
390.18
390.46
390.43
390.24
390.19
390.45
390.22
390.21
390.43
390.45
390.44
390.24
390.19
390.44
390.44
390.23
390.41
390.47
390.63
390.28
390.36
390.52
390.37
390.5
390.39
390.28
390.36
390.51
390.59
390.74
390.61
390.52
390.37
390.72
390.63
390.49
390.61
390.72
390.84
390.74
390.61
390.73
390.84
390.74
390.61
390.94
391.08
390.75
390.82
390.97
390.84
390.96
390.85
390.73
391.05
390.77
390.79
391
391.03
391
390.81
390.98
391.04
390.99
391.03
391.21
391.06
391.19
391.08
391.17
391.09
391.16
391.32
391.39
391.34
391.16
391.32
391.39
391.34
391.37
391.56
391.18
391.52
391.44
391.29
391.42
391.52
391.43
391.51
391.66
391.53
391.42
391.52
391.86
391.57
391.6
391.58
391.81
392.05
391.62
391.99
391.88
391.98
391.68
391.51
391.66
391.74
391.67
391.73
391.9
391.96
391.7
391.71
391.92
391.73
391.9
391.75
391.88
391.98
391.89
391.76
392.09
391.8
391.83
391.81
392.03
392.07
391.81
392.04
392.05
392.05
392.05
392.06
392.25
392.09
392.01
392.31
392.04
392.28
392.07
392.03
392.06
392.25
392.09
392.01
392.08
392.24
392.1
392
392.31
392.04
392.27
392.29
392.27
392.51
392.09
392.23
392.54
392.48
392.32
392.24
392.31
392.46
392.34
392.44
392.36
392.64
392.62
392.41
392.61
392.64
392.62
392.63
392.63
392.83
392.89
392.82
393.11
392.85
393.08
392.87
392.85
392.65
392.82
392.89
392.84
392.87
393.06
392.9
393.04
393.13
393.05
393.12
393.28
393.14
393.04
392.92
393.02
393.15
392.82
392.89
393.05
392.91
392.81
392.68
393.01
392.95
392.77
392.72
392.76
392.95
392.78
392.93
393.22
392.98
392.97
392.99
392.96
393.21
392.98
392.97
393.19
393.01
393.15
393.26
393.15
393.26
393.15
393.47
393.4
393.26
393.37
393.5
393.38
393.5
393.17
393.46
393.2
393.64
393.48
393.4
393.69
393.65
393.47
393.41
393.46
393.63
393.49
393.6
393.73
393.61
393.72
393.62
393.71
393.85
393.74
393.61
393.73
393.83
393.97
393.84
393.96
393.85
393.95
393.86
393.94
394.08
393.96
394.06
394.2
394.07
393.97
394.05
393.99
394.25
394.26
394.02
394.24
394.26
394.25
394.03
394.23
393.83
394.18
393.88
394.14
394.14
393.91
394.11
394.15
394.34
394.18
394.1
394.38
394.14
394.12
394.37
394.37
394.37
394.15
394.35
394.39
394.57
394.41
394.33
394.62
394.59
394.39
394.57
394.41
394.55
394.65
394.56
394.86
394.6
394.6
394.61
394.59
394.83
394.62
394.8
394.86
394.81
394.85
394.82
394.85
395.05
394.65
394.99
395.14
395.22
395.16
394.99
395.14
395.22
395.16
395.21
395.17
395.2
395.4
395.22
395.38
395.02
395.33
395.5
395.35
395.48
395.37
395.46
395.82
395.51
395.56
395.52
395.55
395.75
395.35
395.48
395.59
395.5
395.36
395.26
395.56
395.52
395.33
395.28
395.32
395.51
395.35
395.49
395.58
395.5
395.35
395.48
395.59
395.49
395.58
395.51
395.78
395.77
395.78
395.77
395.77
395.78
395.77
395.78
395.98
396.04
395.76
396
395.79
396.2
395.85
395.71
396.05
395.97
396.04
395.98
395.82
395.95
395.84
395.93
396.08
395.95
396.06
395.96
396.27
396
396.01
396.23
396.26
396.01
396
396.02
396.22
396.27
396
396.24
396.25
396.46
396.28
396.21
396.49
396.47
396.27
396.44
396.51
396.67
396.32
396.39
396.56
396.41
396.54
396.42
396.75
396.46
396.27
396.44
396.52
396.23
396.26
396.23
396.25
396.24
396.03
396.21
396.27
396
396.23
396.25
396.23
396.26
396.23
396.48
396.26
396.23
396.26
396.23
396.25
396.24
396.25
396.24
396.25
396.46
396.27
396.44
396.52
396.44
396.51
396.45
396.5
396.46
396.5
396.68
396.52
396.66
396.55
396.42
396.76
396.68
396.53
396.66
396.55
396.86
396.82
396.4
396.77
396.67
396.76
396.68
396.75
396.69
396.74
396.7
396.73
396.71
396.94
396.96
396.72
396.94
396.74
396.91
396.99
396.92
396.98
396.93
397.19
396.97
396.93
397.19
397.18
397.2
396.96
397.17
397.21
397.17
397.2
397.18
396.97
397.37
397.25
397.35
397.49
397.36
397.26
397.12
397.47
397.39
397.24
397.37
397.48
397.16
397.21
397.17
397.2
397.17
397.2
397.18
397.19
397.19
397.19
397.19
397.4
397.22
397.15
397.44
397.19
397.41
397.21
397.16
397.43
397.2
397.17
397.42
397.43
397.42
397.2
397.4
397.45
397.4
397.45
397.41
397.44
397.63
397.25
397.35
397.49
397.36
397.48
397.37
397.47
397.6
397.49
397.58
397.51
397.56
397.75
397.58
397.73
397.6
397.72
397.83
397.74
397.59
397.72
397.83
397.96
397.4
397.66
397.88
397.91
398.11
397.72
397.84
397.96
397.63
397.91
397.67
397.87
398.15
397.9
398.12
397.93
397.88
397.92
397.88
398.13
398.14
397.91
398.12
398.15
398.12
398.15
397.91
398.11
398.16
398.11
398.38
398.36
398.39
398.36
398.39
398.36
398.39
398.14
398.36
398.17
398.33
398.42
398.56
398.44
398.31
398.65
398.36
398.39
398.36
398.39
398.59
398.63
398.37
398.6
398.63
398.6
398.41
398.34
398.63
398.6
398.4
398.57
398.65
398.8
398.68
398.55
398.67
398.56
398.88
398.6
398.4
398.57
398.65
398.58
398.64
398.58
398.86
398.62
398.6
398.62
398.38
398.59
398.63
398.6
398.85
398.64
398.59
398.64
398.59
398.64
398.59
398.64
398.59
398.63
398.59
398.63
398.59
398.63
398.37
398.6
398.4
398.57
398.43
398.1
398.17
397.89
397.91
397.67
397.43
397.64
397.68
397.43
397.42
397.21
397.17
397.21
396.95
397.17
396.98
397.14
397.23
396.93
396.97
396.94
396.74
396.91
396.77
396.66
396.54
396.86
396.81
396.62
396.8
396.42
396.31
396.4
396.55
396.41
396.32
395.96
396.27
396
395.79
395.97
395.82
395.95
395.62
395.46
395.82
395.51
395.34
395.27
395.11
395.25
395.13
395.01
395.12
395.03
394.89
394.57
394.84
394.61
394.37
394.59
394.61
394.38
394.14
394.35
394.38
394.14
393.91
393.9
393.69
393.65
393.47
393.2
393.21
393.2
392.77
392.93
392.8
392.69
392.57
392.46
392.56
392.47
392.33
392.23
392.32
392.24
391.88
391.76
391.87
391.78
391.64
391.76
391.66
391.74
391.46
391.48
391.26
391.22
391.27
391
391.24
391.03
391.01
390.81
390.77
390.8
390.78
390.58
390.75
390.6
390.52
390.37
390.29
390.58
390.54
390.35
390.31
390.35
390.53
390.37
390.5
390.6
390.3
390.35
390.52
390.16
390.04
389.94
390.03
389.95
389.8
389.73
389.78
389.74
389.56
389.51
389.33
389.49
389.35
389.27
389.33
389.28
389.11
389.05
389.09
388.85
388.42
388.38
388.41
388.39
388.19
388.16
388.18
388.16
387.96
387.93
388.16
388.18
387.95
387.94
388.15
388.19
388.15
388.19
388.15
388.19
387.94
387.95
387.94
387.95
387.72
387.71
387.93
387.95
387.72
387.71
387.72
387.92
387.54
387.66
387.77
387.67
387.55
387.43
387.76
387.47
387.51
387.69
387.54
387.45
387.53
387.46
387.31
387.43
387.34
387.41
387.57
387.42
387.55
387.44
387.54
387.44
387.32
387.42
387.55
387.23
387.3
387.23
387.5
387.48
387.29
387.46
387.31
387.43
387.13
387.17
387.56
387.22
387.31
387.23
387.3
387.24
387.08
387.22
387.31
387.23
387.3
387.24
387.29
387.46
387.31
387.23
387.51
387.27
387.47
387.51
387.26
387.49
387.28
387.46
387.52
387.68
387.33
387.42
387.77
387.67
387.54
387.45
387.53
387.67
387.55
387.44
387.75
387.69
387.74
387.7
387.73
387.5
387.69
387.74
387.69
387.96
387.72
387.72
387.92
387.96
387.71
387.93
387.74
387.91
387.97
387.92
387.96
388.13
387.99
388.11
388.01
388.09
388.03
387.87
388.22
388.12
388
388.1
388.23
388.33
388.24
388.1
388.23
388.11
388.22
388.13
388.2
388.35
388.22
388.33
388.24
388.31
388.47
388.33
388.45
388.56
388.47
388.33
388.24
388.53
388.5
388.3
388.48
388.53
388.7
388.76
388.71
388.54
388.69
388.77
388.91
388.79
388.9
389.02
388.91
388.79
388.9
389.02
389.12
388.61
388.84
389.08
388.86
389.05
389.09
389.06
389.29
389.32
389.07
389.08
389.28
389.33
389.06
389.3
389.3
389.3
389.3
389.31
389.5
389.34
389.26
389.55
389.51
389.55
389.29
389.31
389.5
389.55
389.51
389.76
389.54
389.73
389.57
389.49
389.77
389.74
389.56
389.5
389.34
389.27
389.12
389.24
389.36
389.25
389.35
389.26
389.34
389.27
389.12
389.24
389.36
389.46
389.38
389.23
389.58
389.49
389.57
389.71
389.8
389.71
389.8
389.72
390
389.55
389.72
390
389.75
389.97
389.78
389.95
390.02
389.95
390.01
389.75
389.98
390.21
390.01
389.97
390
389.97
390.21
390.22
389.99
390.19
390.23
390.41
390.47
390.42
390.25
390.39
390.49
390.4
390.27
390.38
390.5
390.6
390.52
390.37
390.72
390.42
390.46
390.64
390.7
390.43
390.45
390.65
390.69
390.66
390.68
390.66
390.89
390.7
390.64
390.91
390.89
390.7
390.85
390.73
390.83
390.97
390.62
390.93
390.87
390.93
390.66
390.68
390.66
390.26
390.39
390.71
390.21
390.43
390.24
390.4
390.48
390.19
390.45
390.65
390.48
390.62
390.5
390.39
390.71
390.64
390.7
390.64
390.91
390.89
390.69
390.86
390.93
391.08
390.96
390.85
391.16
391.1
390.73
391.04
391.21
391.06
390.98
391.04
391.21
391.05
390.98
391.04
391.21
391.27
391.01
391.01
391.45
391.06
391.19
391.08
391.39
391.33
391.16
391.31
391.4
391.11
391.57
391.4
391.53
391.43
391.5
391.88
391.76
391.88
391.76
391.88
391.76
392.09
391.8
392.05
392.05
392.06
392.04
392.06
392.04
392.27
392.07
392.24
392.31
392.25
392.31
392.26
392.3
392.48
392.33
392.24
392.32
392.03
392.07
392.03
391.85
392.01
392.09
391.8
392.05
391.84
391.8
392.05
391.83
392.02
392.08
392.03
392.07
392.03
392.07
392.25
392.09
392.22
392.12
392.2
392.35
392.43
392.59
392.44
392.79
392.7
392.78
392.93
393.02
392.94
393.01
392.94
393
392.95
392.99
392.74
392.74
392.53
392.7
392.78
392.92
393.24
392.96
392.99
392.96
393.42
393.45
393.43
393.45
393.43
393.44
393.65
393.69
393.65
393.47
393.41
393.68
393.66
393.68
393.66
393.89
393.91
393.67
393.88
393.92
393.89
393.92
393.89
393.91
394.11
393.94
394.08
393.96
394.06
393.99
394.04
394.22
393.84
393.74
393.82
393.76
393.81
393.99
393.82
393.97
393.84
393.74
393.6
393.94
394.08
393.96
393.85
394.17
394.11
394.16
394.12
394.15
394.34
394.17
394.32
394.41
394.12
394.37
394.37
394.36
394.6
394.39
394.57
394.63
394.36
394.59
394.4
394.77
394.68
394.53
394.89
394.78
394.89
394.79
394.88
394.79
394.88
394.58
394.84
394.83
394.84
394.83
394.84
394.83
395.06
395.08
395.06
395.3
395.09
395.05
395.31
395.08
395.28
395.33
395.06
395.3
395.31
395.08
395.28
395.33
395.28
395.33
395.28
395.11
395.25
395.13
395.01
395.34
395.05
395.09
395.27
395.12
395.24
395.14
395.22
395.38
395.23
395.59
395.27
395.55
395.53
395.33
395.28
395.32
395.51
395.79
395.54
395.31
395.73
395.59
395.71
395.83
395.72
395.82
395.73
395.81
395.74
395.8
395.75
395.8
395.97
395.82
395.73
396.03
395.99
395.8
395.97
396.04
395.98
396.04
395.99
396.03
395.99
395.8
395.97
396.04
396.2
396.06
395.96
396.27
396.22
396.04
395.98
396.25
396.24
396.03
396.21
396.27
396.22
396.04
396.2
396.28
396.21
396.05
395.97
395.82
395.95
395.84
395.49
395.8
395.76
395.79
395.76
395.78
395.99
395.8
395.75
395.79
395.76
395.79
395.76
395.78
395.99
395.8
395.97
396.05
395.98
395.82
395.95
395.84
396.15
395.89
395.89
396.12
396.13
396.13
395.9
396.1
395.92
395.87
395.91
395.88
395.9
395.89
395.67
395.86
395.69
395.84
395.71
395.82
395.73
395.59
395.71
396.04
395.76
395.78
395.77
395.77
396
395.57
395.73
395.81
395.74
395.8
395.53
395.76
396.01
395.56
395.52
395.77
395.56
395.52
395.34
395.26
395.34
394.83
394.84
394.83
395.06
394.64
394.57
394.63
394.58
394.4
394.55
394.43
394.53
394.45
394.3
394.65
394.34
394.39
394.13
394.35
394.38
394.13
394.14
394.35
394.39
394.13
394.14
394.13
394.14
393.91
394.11
394.16
394.12
393.94
393.65
393.68
393.87
393.71
393.85
393.74
393.83
393.76
393.59
393.74
393.6
393.51
393.58
393.53
393.57
393.55
393.55
393.78
393.57
393.54
393.34
393.52
393.36
393.29
393.35
393.52
393.37
393.28
393.14
393.48
393.4
393.04
393.35
393.3
393.12
393.28
393.14
393.48
393.19
393
393.17
393.02
393.15
393.03
392.92
393.02
392.72
392.54
392.7
392.78
392.5
392.3
392.26
392.29
392.49
392.31
392.25
392.3
392.48
392.11
392.22
392.34
392.23
392.32
392.25
392.31
392.47
392.11
392.21
392.34
392.01
392.29
392.27
392.5
392.31
392.03
392.28
392.49
392.53
392.27
392.29
392.27
392.29
392.26
392.3
392.26
392.3
392.05
392.27
392.29
392.06
392.25
392.31
392.26
392.3
392.04
392.27
392.29
392.27
392.29
392.27
392.5
392.52
392.5
392.74
392.53
392.71
392.56
392.46
392.77
392.72
392.55
392.69
392.79
392.91
392.82
392.67
392.81
392.9
392.83
392.66
392.82
392.68
392.59
392.44
392.79
392.48
392.53
392.27
392.5
392.52
392.07
392.25
392.09
392.44
392.36
392.2
392.56
392.46
392.34
392.44
392.57
392.67
392.59
392.65
392.82
392.89
392.84
392.66
392.82
392.89
392.83
393.09
393.31
393.11
393.07
393.1
393.08
393.31
393.12
393.06
393.55
392.9
393.25
393.17
393.45
393.43
393.22
393.41
393.46
393.21
393.41
393.47
393.41
393.47
393.4
393.48
393.4
393.48
393.39
393.7
393.42
393.89
393.7
393.65
393.69
393.87
393.71
393.85
393.95
393.86
393.93
393.88
393.92
393.88
393.92
393.89
393.91
393.9
393.9
393.9
393.9
393.91
393.68
393.88
394.14
394.13
393.92
394.11
394.16
394.11
393.94
394.09
394.18
394.31
394.2
394.29
394.44
394.31
394.21
394.29
394.44
394.3
394.43
394.53
394.67
394.54
394.44
394.53
394.67
394.54
394.66
394.55
394.86
394.6
394.82
394.63
394.79
394.88
394.57
394.85
394.82
395.07
394.85
394.82
395.07
395.07
394.85
395.04
395.09
395.27
395.12
395.03
395.33
395.07
395.07
395.29
395.32
395.29
395.31
395.3
395.53
395.33
395.28
395.33
395.28
395.55
395.1
395.26
395.56
395.3
395.3
395.3
395.52
395.55
395.31
395.52
395.55
395.74
395.58
395.5
395.79
395.75
395.57
395.51
395.57
395.73
395.59
395.71
395.83
395.94
395.85
395.7
395.84
395.93
395.86
395.69
395.84
395.93
395.86
395.91
396.1
395.71
396.05
395.98
396.04
396.2
396.06
395.97
396.26
396.23
396.04
396.2
396.28
396.22
396.05
396.19
396.29
396.21
396.06
396.19
396.07
396.17
396.09
396.15
396.32
396.17
396.31
396.19
396.29
396.42
396.09
396.38
396.35
395.93
396.3
396.2
396.28
396.43
396.08
396.16
396.31
395.97
396.26
396.23
396.25
396.24
396.02
396.22
396.26
396.23
396.03
395.99
396.24
396.25
396.01
396.22
396.04
396.2
396.06
395.96
396.27
395.79
395.97
396.26
396
396.23
395.81
395.96
396.05
395.97
396.04
395.98
396.03
395.99
395.81
395.96
395.83
395.94
395.85
395.92
396.09
395.72
395.82
395.73
395.59
395.93
395.86
395.69
395.84
395.49
395.8
395.75
395.79
395.76
395.78
395.77
395.78
395.77
395.55
395.75
395.58
395.72
395.82
395.95
395.84
395.93
395.86
395.7
395.84
395.49
395.8
395.75
395.57
395.73
395.81
395.74
395.8
395.53
395.54
395.54
395.32
395.51
395.34
395.27
395.55
395.31
395.3
395.31
395.29
395.53
395.32
395.51
395.35
395.05
395.31
395.52
395.55
395.53
395.33
395.5
395.57
395.29
395.32
395.08
395.28
395.55
395.31
395.52
395.34
395.27
395.33
395.28
395.33
395.28
395.32
395.29
395.32
395.29
395.09
395.27
395.34
395.06
395.3
395.31
395.3
395.31
395.08
395.28
395.11
395.25
395.35
395.26
395.34
395.27
395.33
395.28
395.33
395.28
395.32
395.07
395.29
395.32
395.29
395.54
395.32
395.29
395.31
395.3
395.31
395.3
395.31
395.3
395.52
395.55
395.31
395.52
395.56
395.31
395.52
395.56
395.3
395.52
395.33
395.49
395.58
395.28
395.32
395.29
395.32
395.29
395.1
395.26
395.34
395.27
395.33
395.28
395.55
395.31
395.29
395.31
395.29
395.31
395.29
395.31
395.29
395.53
395.32
395.28
395.54
395.54
395.32
395.29
395.53
395.54
395.75
395.79
395.75
395.79
395.76
395.79
395.76
395.79
395.98
395.82
395.73
395.81
395.74
396.02
395.77
395.77
395.99
395.8
395.97
396.05
395.97
396.26
396.01
396.01
396.01
396
396.01
396.22
396.04
395.97
396.04
396.2
396.29
395.98
396.25
396.24
396.25
396.24
396.25
396.24
396.25
396.24
396.25
396.24
396.25
396.24
396.47
396.27
396.44
396.3
396.19
396.51
396.67
396.32
396.39
396.34
396.38
396.36
396.36
396.81
396.41
396.32
396.17
396.31
396.41
396.33
396.39
396.78
396.44
396.73
396.7
396.51
396.68
396.53
396.66
396.77
396.67
396.75
396.68
396.74
396.91
396.98
396.92
396.75
396.9
396.77
396.66
397.2
397.18
396.97
396.94
396.96
397.16
396.99
396.92
397.2
397.18
396.97
397.16
396.99
397.14
397.01
397.12
397.25
397.13
397.24
397.15
397.22
397.38
397.24
397.36
397.48
397.59
397.5
397.36
397.48
397.6
397.5
397.58
397.51
397.57
397.75
397.59
397.95
397.86
397.71
397.84
397.73
397.82
397.97
397.84
397.95
397.86
397.94
398.09
397.73
398.04
398
397.81
398.2
397.86
397.93
398.1
397.95
398.3
398
398.03
398.23
398.28
398.24
398.04
398.44
398.1
398.17
398.11
398.15
398.35
398.17
398.11
398.38
398.37
398.15
398.35
398.17
398.33
398.19
398.31
398.43
398.32
398.42
398.34
398.18
398.54
398.46
398.3
398.66
398.57
398.42
398.33
398.63
398.6
398.4
398.57
398.64
398.59
398.63
398.6
398.85
398.86
398.62
398.83
398.65
398.81
398.67
398.56
398.88
398.83
398.65
398.81
398.45
398.53
398.69
398.55
398.45
398.53
398.47
398.51
398.7
398.53
398.46
398.52
398.7
398.54
398.68
398.55
398.66
398.57
398.43
398.55
398.67
398.57
398.65
398.58
398.42
398.56
398.66
398.57
398.65
398.36
398.6
398.62
398.6
398.63
398.6
398.63
398.59
398.64
398.37
398.61
398.62
398.39
398.58
398.64
398.58
398.87
398.39
398.36
398.61
398.4
398.35
398.4
398.35
398.62
398.39
398.59
398.64
398.37
398.38
398.37
398.6
398.63
398.38
398.37
398.38
398.6
398.19
398.31
398.66
398.35
398.17
398.32
398.42
398.33
398.19
398.09
398.4
398.13
398.15
398.13
398.14
398.13
397.92
397.88
398.14
397.7
398.07
397.98
397.83
398.19
397.65
397.9
397.9
397.9
397.9
397.9
398.12
397.93
397.65
397.89
397.91
397.89
397.68
397.64
397.9
397.89
397.68
397.86
397.71
397.84
397.74
397.59
397.73
397.6
397.5
397.36
397.49
397.37
397.26
397.35
397.5
397.36
397.26
397.34
397.28
397.32
397.3
397.31
397.31
397.3
397.54
397.1
397.49
397.15
397.22
397.38
397.24
397.37
397.26
397.13
397.24
397.15
397.22
397.16
397.21
397.39
397.01
396.9
397.21
396.73
396.92
396.99
396.92
397.21
396.72
396.93
396.97
396.94
396.96
396.95
396.73
396.92
396.75
396.9
396.99
396.69
396.73
396.7
396.94
396.96
396.72
396.93
396.74
396.91
396.77
396.89
397.01
396.68
396.74
396.91
396.77
396.89
396.57
396.84
396.83
396.61
396.81
396.63
396.79
396.87
396.59
396.82
396.85
396.59
396.82
396.62
396.8
396.86
396.81
396.63
396.79
396.87
396.8
396.64
396.78
396.66
396.77
396.67
396.75
396.91
396.77
396.67
396.97
396.72
396.71
396.73
396.7
396.95
396.51
396.46
396.72
396.28
396.43
396.53
396.43
396.53
396.21
396.5
396.46
396.5
396.46
396.28
396.43
396.53
396.21
396.49
396.47
396.71
396.5
396.46
396.71
396.28
396.43
396.74
396.47
396.71
396.5
396.68
396.75
396.46
396.72
396.49
396.68
396.52
396.44
396.52
396.67
396.76
396.45
396.72
396.71
396.72
396.49
396.68
396.75
396.68
396.74
396.47
396.93
396.97
396.5
396.9
396.78
396.87
396.8
396.85
397.05
396.86
396.81
396.84
397.05
396.86
397.04
397.09
397.28
396.89
397.01
397.12
397.03
397.1
397.05
396.86
397.03
396.66
396.98
396.92
396.97
396.71
396.71
396.94
396.74
396.91
396.76
396.89
396.78
396.66
396.77
397.11
397.04
396.88
396.8
397.08
397.28
397.1
397.04
397.09
397.05
397.08
397.06
397.08
397.29
397.1
397.26
397.12
397.24
397.36
397.25
397.35
397.49
397.15
397.43
397.2
397.39
397.24
397.13
397.47
397.38
397.47
397.38
397.47
397.38
397.47
397.38
397.47
397.16
397.66
397.44
397.41
397.65
397.23
397.36
397.7
397.62
397.7
397.4
397.67
397.66
397.67
397.65
397.67
397.65
397.89
397.69
397.86
397.71
397.61
397.93
397.65
397.89
397.69
397.64
397.9
397.9
397.68
397.64
397.68
397.87
397.71
397.62
397.92
397.66
397.66
397.66
397.88
397.92
397.88
397.92
397.88
397.92
398.1
397.95
398.07
398.2
397.86
397.94
398.08
398.19
398.09
398.18
398.32
398.43
398.54
398.68
398.55
399.11
398.85
398.85
399.07
399.11
399.07
398.88
399.04
399.13
398.83
399.09
399.09
399.09
399.31
399.12
399.06
399.12
399.07
399.11
399.29
399.14
399.27
399.16
399.25
399.4
399.04
399.36
399.53
399.61
399.54
399.37
399.51
399.4
399.27
399.16
399.03
399.14
398.6
398.85
399.08
399.09
398.87
398.39
398.14
398.13
397.93
397.43
397.2
396.95
396.95
396.73
396.49
396.69
396.52
396.44
396.3
396.19
396.3
395.75
396.01
395.79
395.76
395.78
395.55
395.53
395.33
394.84
395.05
394.87
394.8
394.65
394.78
394.89
394.57
394.63
394.58
394.62
394.58
394.62
394.59
394.83
394.62
394.36
394.37
394.15
393.91
393.89
393.91
393.68
393.66
393.68
393.66
393.46
393.42
393.46
393.64
393.05
392.69
393.01
392.73
392.97
392.76
392.51
392.73
392.76
392.73
392.97
392.98
393.18
392.79
393.13
393.28
393.14
393.7
393.64
393.91
394.54
394.65
394.77
395.11
395.47
396.04
395.98
396.47
396.49
396.47
396.93
396.97
396.93
396.97
397.16
397.21
397.17
397.21
397.17
397.2
397.4
397.23
397.15
397.44
397.19
397.18
397.42
397.21
397.39
397.46
397.62
397.48
397.6
397.94
397.86
397.93
398.09
398.18
398.32
398.2
398.08
398.41
398.35
398.4
398.36
398.17
398.55
398.44
398.31
398.43
398.33
398.2
398.08
398.18
398.32
398.2
398.3
398.22
398.28
398.23
398.05
397.99
398.04
398.23
398.06
398.21
398.08
398.19
397.87
397.92
398.1
397.94
398.08
398.18
398.1
397.95
397.86
397.93
397.87
397.92
397.88
397.91
397.89
397.9
397.9
397.89
397.91
397.67
397.66
397.66
397.67
397.44
397.42
397.21
397.39
397.23
396.93
396.97
396.94
396.74
396.91
396.77
396.67
396.32
396.4
396.33
396.16
396.1
395.93
395.86
395.69
395.63
395.46
395.61
395.26
395.13
394.8
394.65
394.78
394.45
394.3
394.21
394.06
393.98
393.62
393.72
393.63
393.27
393.15
393.04
392.7
392.56
392.47
392.55
392.26
391.86
391.78
391.64
391.55
391.2
391.07
390.97
390.84
390.53
390.37
390.51
390.17
389.82
389.7
389.38
389.23
389.15
389.01
388.71
388.75
388.51
388.08
388.25
387.89
387.78
387.46
387.31
387.23
386.88
386.76
386.65
386.33
386.19
385.9
385.94
385.5
385.24
385.06
384.79
384.62
384.14
383.94
383.69
383.3
383.02
382.86
382.57
382.63
381.96
381.72
381.52
381.09
380.44
380.19
380.2
380
379.57
379.54
379.36
379.11
378.92
378.68
378.49
378.46
378.09
378
377.68
377.56
377.47
377.14
377.03
376.72
376.6
376.31
376.16
375.89
375.54
375.44
375.13
374.81
374.51
374.17
374.07
373.96
373.67
373.33
373.44
373.15
372.81
372.71
372.61
372.5
372.21
372.07
371.81
371.64
371.6
371.43
371.58
371.06
370.74
370.63
370.54
370.43
370.14
369.81
370.1
369.85
369.68
369.45
369.45
369.27
369.04
369.05
368.65
368.62
368.27
368.01
367.85
368.18
367.9
367.94
367.91
367.56
367.49
367.36
367.47
367.37
367.08
367.14
367.09
366.94
366.89
366.74
366.87
366.57
366.45
366.56
366.47
366.55
366.29
366.32
366.3
365.94
365.88
365.93
365.89
365.73
365.49
365.33
365.47
365.35
365.45
365.36
365.81
365.8
365.61
365.6
365.6
365.42
365.38
365.24
365.17
365.24
364.98
365.22
365
364.82
364.97
364.85
364.94
364.88
364.55
364.66
364.55
364.65
364.37
364.44
364.38
364.25
364.35
364.45
364.17
364.42
364.21
364.21
364.21
364.39
364.23
364.18
364.23
364.37
364.26
364.34
364.28
364.14
364.08
364.12
364.29
364.13
364.09
364.11
364.29
364.31
364.3
364.11
364.47
364.16
364.44
364.38
364.43
364.57
364.45
364.55
364.65
364.75
364.67
364.54
364.66
364.93
364.89
364.91
365.27
365.14
365.26
365.16
365.62
365.59
365.42
365.57
365.44
365.56
365.65
365.57
365.82
365.42
365.57
366.01
365.81
365.99
366.02
365.99
366.01
366.19
366.22
366.19
366.03
366.17
366.23
366.37
366.63
366.41
366.59
366.63
366.59
366.82
366.61
366.79
366.82
366.99
367.03
367
367.4
367.24
367.19
367.43
367.59
367.84
367.62
367.81
368.02
368.03
367.83
368.01
367.85
367.98
368.06
368.18
368.27
368
368.24
368.22
368.23
368.23
368.23
368.42
368.45
368.61
368.66
368.62
368.65
368.81
368.68
368.98
369.1
368.99
369.09
369
369.28
369.23
369.08
369.39
369.51
369.21
369.28
369.41
369.49
369.42
369.29
369.4
369.31
369.38
369.33
369.37
369.34
369.36
369.35
369.16
369.33
369.17
369.32
369.19
369.3
369.01
369.07
369.02
369.06
369.03
368.86
369.01
368.88
369
368.9
368.98
369.1
368.99
369.09
369.01
368.7
368.58
368.3
368.35
368.5
368.37
368.11
367.95
367.9
367.38
367.07
366.96
367.06
366.79
366.45
365.99
365.82
365.79
365.44
365.56
365.46
365.36
365.26
365.16
365.05
364.59
364.62
364.78
364.45
364.55
364.65
364.57
364.64
364.39
364.41
364.4
364.4
364.59
364.24
364.36
364.44
364.37
364.25
364.36
364.45
364.55
364.46
364.54
364.85
364.77
364.84
364.78
365.01
365.19
365.03
365.35
365.45
365.36
365.44
365.37
365.61
365.78
365.82
365.98
366.03
366.17
366.05
365.97
366.22
366.19
366.22
366.2
366.4
366.6
366.42
366.58
366.63
366.59
366.63
366.59
366.81
366.81
366.62
366.79
366.83
366.79
366.82
366.8
366.82
366.99
366.84
366.97
367.05
366.98
367.05
366.98
367.04
366.99
366.85
366.97
367.05
366.98
366.86
366.58
366.63
366.59
366.63
366.59
366.62
366.6
366.25
366.36
366.45
365.99
366.02
366
365.82
365.79
365.45
365.37
365.44
365.19
365.03
364.98
364.84
364.59
364.43
364.38
364.06
363.78
363.83
363.6
363.62
363.24
363.01
363.03
362.64
362.61
362.27
361.83
361.66
361.44
361.08
360.84
360.5
360.07
359.72
359.66
359.53
358.92
358.72
358.36
357.95
357.77
357.21
357.16
356.85
356.58
356.46
356.2
355.89
355.63
355.15
355.03
354.79
354.11
354
353.75
353.44
353
352.68
352.44
351.96
351.68
351.23
350.75
350.48
350.2
349.93
349.48
349.19
348.92
348.47
348.01
347.73
347.3
347
346.59
346.27
346.04
345.57
345.14
344.68
344.25
343.95
343.55
343.4
343.2
342.88
342.5
342.17
341.65
341.11
340.76
340.41
340.07
339.55
339.36
338.88
338.49
337.87
337.29
337.15
336.8
336.47
336.12
335.94
335.79
335.29
335.09
334.79
334.42
334.27
333.94
333.75
333.29
332.91
332.78
332.58
332.45
332.09
331.79
331.59
331.15
330.76
330.49
329.95
329.66
329.15
328.83
328.5
327.88
327.36
326.92
326.55
325.98
325.58
325.18
324.93
324.71
324.31
323.78
323.35
323.43
322.78
322.47
322.01
321.53
321.23
320.77
320.45
320
319.67
319.1
318.46
318.16
317.71
317.53
317.55
317.25
316.95
316.5
316.19
316.04
315.62
315.42
315.04
314.39
313.85
313.34
312.97
312.74
312.53
312.02
312.06
311.62
311.46
310.92
310.57
310.33
309.86
309.6
309.29
308.89
308.83
308.49
308.25
308.19
307.84
307.62
307.41
307.33
307.13
306.91
306.84
306.64
306.28
306.2
306
305.65
305.43
304.98
304.58
304.28
303.89
303.46
303.05
303.02
302.53
302.19
301.72
301.49
301.56
301.37
301.28
301.24
301.02
301.08
300.9
300.8
300.76
300.42
300.46
300.43
300.33
300.16
299.92
300.01
299.93
299.75
299.65
299.61
299.52
299.47
299.26
299.32
299.27
299.19
299.26
299.19
299.38
299.34
299.37
299.48
299.51
299.48
299.51
299.49
299.63
299.51
299.48
299.76
299.52
299.48
299.39
299.21
298.86
298.54
298.57
298.67
298.58
298.53
298.58
298.66
298.72
298.67
298.71
298.92
298.99
299.05
299.13
299.31
299.28
299.18
299.27
299.44
299.55
299.45
299.66
299.73
299.67
299.72
299.68
299.71
299.82
299.72
299.8
299.86
299.69
299.58
299.55
299.7
299.83
299.58
299.8
299.74
300.04
300.03
300.03
300.29
300.19
300.28
300.45
300.56
300.72
300.71
300.84
300.98
300.98
301.24
301.26
301.5
301.55
301.51
301.42
301.62
301.57
301.74
301.73
301.86
302.13
302.02
302.12
302.16
302.25
302.3
302.26
302.29
302.52
302.32
302.37
302.33
302.49
302.61
302.63
302.88
302.79
302.86
302.93
303.13
303.34
303.29
303.33
303.68
303.76
303.82
304.16
304.64
305.14
305.1
305.26
305.51
305.42
305.5
305.56
305.77
305.85
305.91
305.99
306.05
306.13
306.2
306.4
306.62
306.7
306.63
306.69
306.9
306.85
307.02
307.14
307.3
307.43
307.31
307.55
307.74
307.71
307.73
307.84
308.14
308.15
308.14
308.29
308.29
308.56
308.46
308.55
308.73
308.57
308.84
308.88
308.84
309.15
309.01
309.13
309.16
309.4
309.46
309.41
309.59
309.7
309.74
309.84
310.02
310
310.02
310
310.02
309.87
309.99
310.03
310.13
310.18
310
310.29
310.44
310.45
310.44
310.45
310.57
310.87
310.61
310.7
310.77
310.7
310.9
311
311.05
311.14
311.06
311.26
311.23
311.24
311.51
311.41
311.64
311.71
311.79
311.85
311.94
312
311.95
311.98
312.37
312.17
312.2
312.31
312.35
312.59
312.66
312.6
312.79
312.9
312.94
313.04
313.23
313.34
312.42
311.98
311.96
311.84
311.95
311.85
312.21
312.31
312.22
312.16
312.21
312.44
312.38
312.3
312.64
312.62
312.5
312.6
312.78
312.9
312.8
312.89
312.95
313.04
313.09
313.18
313.24
313.47
313.27
313.3
313.55
313.61
313.56
313.6
313.84
313.63
313.68
313.78
313.96
313.95
313.96
313.95
314.23
314.27
314.09
314.25
314.38
314.42
314.38
314.55
314.53
314.69
314.69
314.84
314.85
314.98
315
314.98
315
315.4
315.33
315.25
315.46
315.55
315.48
315.54
315.63
315.69
315.78
315.7
316.05
315.89
315.88
316.17
316.2
316.17
316.2
316.18
316.33
316.34
316.33
316.62
316.65
316.76
316.67
316.61
316.8
316.77
316.8
316.92
316.95
317.2
316.99
317.03
317.14
317.18
317.29
317.19
317.42
317.5
317.3
317.47
317.61
317.62
317.62
317.61
317.9
317.79
317.89
317.94
318.04
317.95
318.17
318.12
318.31
318.29
318.3
318.44
318.46
318.45
318.45
318.59
318.61
318.74
318.77
318.89
318.93
319.04
318.94
319.02
319.24
319.19
319.09
319.32
319.26
319.31
319.42
319.47
319.57
319.62
319.58
319.61
319.73
319.77
319.88
319.92
319.89
319.92
320.04
320.07
320.19
319.94
320.15
320.12
320.29
320.43
320.3
320.42
320.6
320.59
320.45
320.58
320.61
320.73
320.62
320.72
320.63
320.7
320.64
320.55
320.78
320.58
320.6
320.73
320.76
320.74
320.61
320.72
320.91
320.75
320.74
320.9
320.91
320.9
320.76
320.74
321.04
321.08
320.9
320.91
320.89
321.06
320.77
320.73
320.76
320.88
320.78
320.58
320.75
320.6
320.44
320.44
320.44
320.3
320.13
320.13
320.13
319.99
319.82
319.97
319.7
319.65
319.55
319.34
319.39
319.35
319.24
319.19
319.09
318.89
318.78
318.59
318.62
318.59
318.33
318.13
318.02
317.97
317.74
317.65
317.73
317.52
317.28
317.2
316.99
316.75
316.68
316.59
316.39
316.14
316.08
315.71
315.76
315.44
315.29
315.28
315.01
314.69
314.55
314.26
314.1
313.83
313.64
313.53
313.07
313.06
312.8
312.62
312.36
312.17
311.93
311.73
311.63
311.58
311.35
311.28
311.08
310.84
310.78
310.56
310.61
310.43
310.18
310.13
309.91
309.56
309.59
309.43
309.43
309.17
308.99
309.02
308.72
308.71
308.45
308.28
308.16
308
307.88
307.72
307.59
307.44
307.3
307.16
307.15
306.9
306.85
306.63
306.55
306.63
306.42
306.47
306.29
306.06
306.12
306.07
305.98
305.94
305.71
305.91
305.86
305.91
305.87
305.9
306
306.05
306.01
306.17
306.16
306.3
306.18
306.15
306.18
306.15
306.05
306
305.92
305.98
305.93
305.84
305.8
305.69
305.79
305.57
305.77
305.59
305.49
305.32
305.33
305.32
305.33
305.19
305.18
305.06
304.9
305.04
304.92
304.89
304.92
304.89
304.92
304.89
304.92
304.9
304.91
304.9
304.91
304.77
304.89
304.92
304.76
304.9
304.78
304.88
304.8
304.87
304.81
304.85
305.08
304.88
304.93
305.02
305.07
305.02
305.07
305.03
305.19
305.18
305.32
305.33
305.32
305.46
305.46
305.47
305.46
305.47
305.72
305.64
305.57
305.76
305.73
305.76
305.73
305.89
306.01
306.04
306.01
305.91
305.99
306.19
306.02
306.04
306.02
306.16
306.17
306.17
306.3
306.32
306.3
306.31
306.43
306.46
306.56
306.48
306.68
306.91
306.84
307.03
307.13
307.31
307.41
307.46
307.55
307.74
307.71
308
308.01
308.26
308.58
309.1
309.59
309.7
310.01
309.87
310
310.29
310.31
310.29
310.58
310.6
310.85
310.64
310.81
311.07
311.11
311.22
311.26
311.36
311.4
311.51
311.55
311.65
311.83
312.09
312
312.35
312.32
312.34
312.46
312.5
312.74
312.8
312.89
312.95
313.17
313.26
313.18
313.52
313.5
313.51
313.64
313.67
313.79
313.82
313.93
314.11
314.1
314.1
314.24
314.39
314.54
314.41
314.52
314.7
314.83
314.85
314.97
315.15
315.27
315.16
315.26
315.59
315.58
315.59
315.73
315.74
316.01
316.06
316.02
316.19
316.32
316.35
316.46
316.5
316.75
316.68
316.74
316.97
317.05
317.12
317.06
317.12
317.34
317.29
317.47
317.6
317.63
317.75
317.64
318.02
317.97
317.87
318.1
318.05
318.23
318.36
318.39
318.51
318.54
318.66
318.7
318.95
319.01
318.96
319
319.11
319.16
319.26
319.17
319.39
319.49
319.55
319.64
319.7
319.65
319.69
319.66
319.82
319.97
319.84
320.1
320.02
319.95
320.01
319.96
320.29
320.15
320.12
320.15
320.26
320.32
320.11
320.3
320.42
320.46
320.28
320.44
320.44
320.59
320.46
320.43
320.6
320.6
320.45
320.58
320.61
320.58
320.46
320.56
320.62
320.57
320.62
320.58
320.61
320.58
320.46
320.42
320.46
320.57
320.48
320.41
320.47
320.42
320.32
320.26
320.31
320.26
320.17
320.25
320.32
320.25
320.17
320.1
320.17
320.25
319.89
319.76
319.88
319.92
319.75
319.75
319.61
319.58
319.48
319.41
319.48
319.12
319.29
319
319.26
319.18
318.82
318.84
318.68
318.67
318.69
318.39
318.5
318.55
318.37
318.24
318.07
318.21
318.09
317.77
318.05
317.81
317.73
317.66
317.58
317.51
317.42
317.22
317.25
317.09
316.94
316.94
316.79
316.93
316.66
316.75
316.53
316.59
316.54
316.44
316.52
316.17
316.19
316.18
316.05
316.03
316.04
315.9
316.01
315.92
315.71
315.9
315.73
315.75
315.59
315.73
315.46
315.55
315.48
315.4
315.47
315.27
315.16
315.12
315.29
315.28
315.15
315.13
315.01
315.11
314.88
314.94
315.03
314.95
314.89
314.8
314.88
314.81
314.73
314.8
314.61
314.9
314.93
314.76
315.05
314.93
314.9
314.92
314.91
315.06
315.08
314.91
315.2
314.95
315.03
314.96
315.02
315.11
314.89
314.94
315.04
314.95
314.89
314.8
314.74
314.93
314.77
314.76
314.91
314.78
314.76
314.77
314.76
314.77
314.77
314.77
314.63
314.88
314.81
314.73
314.81
314.73
314.8
314.73
314.8
314.88
314.95
314.88
315.09
314.91
315.06
314.93
315.04
314.81
315
314.98
314.99
315.13
315.14
315
315.11
315.17
314.97
315.16
314.98
315
314.97
315.01
315.11
315.17
315.11
315.17
315.1
315.31
315.12
315.3
315.28
315.3
315.28
315.44
315.43
315.72
315.47
315.69
315.78
315.7
315.77
315.84
316.06
316.01
315.92
316.14
316.23
316.29
316.38
316.43
316.53
316.3
316.64
316.77
316.8
316.92
316.82
317.04
317.27
317.21
317.12
317.34
317.44
317.49
317.59
317.64
317.88
317.81
317.88
317.82
317.87
317.96
317.88
317.95
318.18
318.12
318.17
318.27
318.33
318.42
318.34
318.55
318.66
318.7
318.81
318.71
318.94
319.02
318.95
319.01
319.11
319.31
319.28
319.3
319.71
319.35
319.66
319.83
319.82
319.97
319.84
320.1
320.3
320.27
320.3
320.28
320.44
320.59
320.6
320.74
320.76
320.74
320.61
320.73
320.91
321.04
320.93
321.17
321.11
321.16
321.26
321.17
321.4
321.49
321.41
321.48
321.71
321.51
321.68
321.82
321.84
321.97
322
322.12
322.16
322.28
322.18
322.26
322.33
322.27
322.33
322.42
322.48
322.58
322.5
322.56
322.65
322.58
322.64
322.73
322.8
322.59
322.77
322.91
323.08
323.08
323.08
323.23
323.24
323.24
323.24
323.24
323.38
323.56
323.4
323.54
323.71
323.71
323.71
323.86
323.87
324.01
324.04
324.16
324.35
324.33
324.34
324.48
324.51
324.63
324.53
324.62
324.84
324.79
324.98
324.82
324.95
325.13
325.12
325.14
325.12
325.28
325.29
325.29
325.29
325.43
325.46
325.44
325.46
325.59
325.47
325.57
325.79
325.74
325.93
325.92
326.08
326.09
325.93
326.22
326.27
326.22
326.41
326.39
326.56
326.57
326.56
326.57
326.56
326.72
326.73
326.72
326.73
326.72
326.73
326.87
326.75
326.85
326.91
327
327.08
327.01
327.22
327.34
327.24
327.47
327.43
327.46
327.59
327.47
327.73
327.65
327.57
327.79
327.75
327.78
327.91
327.79
328.05
327.97
328.19
328.3
328.2
328.29
328.37
328.15
328.34
328.48
328.5
328.49
328.5
328.64
328.67
328.8
328.68
328.78
328.85
328.79
328.99
328.97
328.98
328.98
329.13
329.31
329.3
329.46
329.32
329.44
329.49
329.3
329.46
329.78
329.65
329.76
329.67
329.75
329.68
329.74
329.69
329.73
329.85
329.89
329.86
329.88
330.02
329.9
329.86
329.89
329.87
329.88
329.87
329.87
330.03
329.89
330.01
329.91
330
329.77
329.97
329.95
330.11
330.28
330.13
330.12
330.27
330.3
330.12
330.12
330.27
330.3
330.26
330.3
330.41
330.33
330.24
330.48
330.42
